acute161_0005.acq5 msec/sample5 channelsPPG100CVoltsGSR100CmicrosiemensRSP100CVoltsScanner TTLVoltsScanner TriggerVoltsmin	CH1	CH2	CH3	CH6	CH20		63017	63017	63017	63017	63017	0	0.00793457	1.93329	-0.153198	-0.0012207	5	8.33333E-05	0.0088501	1.93939	-0.0512695	0.000305176	5	0.000166667	0.00762939	1.93939	0.0891113	-0.000610352	5	0.00025	0.00823975	1.93787	0.259094	-0.000610352	5	0.000333333	0.00854492	1.93939	0.449524	0.000305176	5	0.000416667	0.00854492	1.93787	0.643616	0.000610352	5	0.0005	0.00823975	1.93176	0.829468	0	5	0.000583333	0.00854492	1.93787	0.996094	-0.000610352	5	0.000666667	0.00823975	1.93329	1.13495	-0.0012207	5	0.00075	0.00793457	1.93482	1.24176	-0.0012207	5	0.000833333	0.00823975	1.93329	1.31531	-0.000915527	5	0.000916667	0.00823975	1.93634	1.35956	0.000915527	5	0.001	0.00793457	1.92871	1.37756	0	5	0.00108333	0.00793457	1.93176	1.37634	0	5	0.00116667	0.00823975	1.93024	1.35864	-0.000305176	5	0.00125	0.00762939	1.92871	1.33087	-0.000305176	5	0.00133333	0.00762939	1.93787	1.30127	-0.0012207	5	0.00141667	0.00732422	1.93329	1.26862	-0.000915527	5	0.0015	0.00671387	1.93482	1.2384	-0.000610352	5	0.00158333	0.00671387	1.93787	1.21399	-0.000915527	5	0.00166667	0.00640869	1.93482	1.19476	0	5	0.00175	0.00640869	1.93787	1.17981	-0.000305176	5	0.00183333	0.00671387	1.93787	1.17065	-0.000915527	5	0.00191667	0.00610352	1.93024	1.16547	-0.0012207	5	0.002	0.00579834	1.93024	1.16547	0	5	0.00208333	0.00640869	1.93482	1.16882	-0.000915527	5	0.00216667	0.00549316	1.93482	1.17584	0.000610352	5	0.00225	0.00549316	1.93329	1.1853	0	5	0.00233333	0.00549316	1.93634	1.19751	-0.000305176	5	0.00241667	0.00457764	1.93482	1.21033	0.0012207	5	0.0025	0.00457764	1.93024	1.22528	-0.000610352	5	0.00258333	0.00518799	1.93482	1.23993	0	5	0.00266667	0.00579834	1.92871	1.25397	-0.0012207	5	0.00275	0.00518799	1.93482	1.26648	-0.000915527	5	0.00283333	0.00488281	1.93329	1.27747	-0.0012207	5	0.00291667	0.00457764	1.93176	1.28662	-0.000610352	5	0.003	0.00488281	1.93482	1.29333	-0.000610352	5	0.00308333	0.00488281	1.93329	1.29822	-0.00152588	5	0.00316667	0.00457764	1.93329	1.30249	-0.000305176	5	0.00325	0.00488281	1.93024	1.30432	-0.00152588	5	0.00333333	0.00488281	1.93176	1.3031	0.000305176	5	0.00341667	0.00488281	1.93176	1.30188	-0.0012207	5	0.0035	0.00457764	1.93024	1.29974	0	5	0.00358333	0.00457764	1.93482	1.29822	-0.000610352	5	0.00366667	0.00518799	1.93482	1.29791	-0.0012207	5	0.00375	0.00488281	1.93482	1.29944	-0.000610352	5	0.00383333	0.00518799	1.93482	1.3028	-0.000305176	5	0.00391667	0.00579834	1.93482	1.30646	-0.000610352	5	0.004	0.00488281	1.93024	1.31104	0	5	0.00408333	0.00488281	1.93482	1.31561	-0.000610352	5	0.00416667	0.00579834	1.93329	1.3208	-0.000610352	5	0.00425	0.00579834	1.93329	1.32385	-0.000915527	5	0.00433333	0.00610352	1.93634	1.32538	-0.000305176	5	0.00441667	0.00610352	1.93634	1.32629	0.000305176	5	0.0045	0.00549316	1.93024	1.32538	-0.000305176	5	0.00458333	0.00549316	1.93634	1.32477	-0.000305176	5	0.00466667	0.00610352	1.93329	1.32233	-0.000610352	5	0.00475	0.00640869	1.93176	1.32172	-0.000305176	5	0.00483333	0.00640869	1.93329	1.32263	-0.000915527	5	0.00491667	0.00518799	1.93482	1.32721	0.0012207	5	0.005	0.00518799	1.93024	1.3382	-0.000305176	5	0.00508333	0.00640869	1.93634	1.35559	0	5	0.00516667	0.00610352	1.93024	1.37787	-0.000915527	5	0.00525	0.00579834	1.93176	1.40106	-0.000305176	5	0.00533333	0.00579834	1.93329	1.42639	-0.000915527	5	0.00541667	0.00640869	1.93634	1.44897	0.000610352	5	0.0055	0.00549316	1.92719	1.46973	-0.000610352	5	0.00558333	0.00701904	1.93329	1.48315	-0.000610352	5	0.00566667	0.00610352	1.93482	1.49475	-0.000610352	5	0.00575	0.00640869	1.93329	1.50146	-0.000305176	5	0.00583333	0.00640869	1.93176	1.50421	-0.000610352	5	0.00591667	0.00671387	1.93176	1.50452	-0.00152588	5	0.006	0.00640869	1.93329	1.50269	-0.000305176	5	0.00608333	0.00732422	1.93787	1.49963	-0.000915527	5	0.00616667	0.00701904	1.93329	1.49597	0	5	0.00625	0.00640869	1.93176	1.49109	0	5	0.00633333	0.00671387	1.93176	1.48834	-0.000610352	5	0.00641667	0.00701904	1.93024	1.48438	-0.00152588	5	0.0065	0.00701904	1.93176	1.48102	-0.000305176	5	0.00658333	0.00762939	1.93939	1.47888	-0.000915527	5	0.00666667	0.00701904	1.92871	1.47766	0.000305176	5	0.00675	0.00701904	1.93024	1.47491	0	5	0.00683333	0.00732422	1.93176	1.47644	-0.000610352	5	0.00691667	0.00671387	1.92871	1.48071	-0.000915527	5	0.007	0.00671387	1.93482	1.49139	-0.0012207	5	0.00708333	0.00640869	1.93329	1.50482	0	5	0.00716667	0.00671387	1.93024	1.521	-0.000915527	5	0.00725	0.00701904	1.92871	1.54022	-0.000915527	5	0.00733333	0.00732422	1.93024	1.56158	-0.000610352	5	0.00741667	0.00762939	1.93329	1.58356	-0.000915527	5	0.0075	0.00701904	1.93634	1.60736	-0.000915527	5	0.00758333	0.00762939	1.93482	1.63269	0	5	0.00766667	0.00701904	1.93329	1.65802	-0.000915527	5	0.00775	0.00671387	1.93024	1.68488	-0.000915527	5	0.00783333	0.00671387	1.93329	1.71509	-0.0012207	5	0.00791667	0.00640869	1.93024	1.74744	-0.000915527	5	0.008	0.00701904	1.93329	1.78253	-0.0012207	5	0.00808333	0.00762939	1.93634	1.81824	-0.0012207	5	0.00816667	0.00701904	1.93329	1.85455	0	5	0.00825	0.00671387	1.93176	1.88782	0	5	0.00833333	0.00762939	1.93634	1.92078	-0.000610352	5	0.00841667	0.00732422	1.92871	1.94885	-0.00152588	5	0.0085	0.00701904	1.93634	1.97327	-0.000610352	5	0.00858333	0.00793457	1.93482	1.99341	0	5	0.00866667	0.00793457	1.93329	2.00775	-0.000915527	5	0.00875	0.00732422	1.93176	2.01904	0.000305176	5	0.00883333	0.00762939	1.93329	2.02637	-0.000610352	5	0.00891667	0.00793457	1.93329	2.03064	-0.000305176	5	0.009	0.00793457	1.93482	2.03339	-0.00152588	5	0.00908333	0.00732422	1.93329	2.03491	0	5	0.00916667	0.00762939	1.93482	2.03369	-0.0012207	5	0.00925	0.00762939	1.93482	2.03308	-0.000610352	5	0.00933333	0.00762939	1.93329	2.03217	-0.000610352	5	0.00941667	0.00762939	1.93787	2.03064	0	5	0.0095	0.00762939	1.93482	2.03003	0.000610352	5	0.00958333	0.00732422	1.93024	2.02972	0	5	0.00966667	0.00732422	1.93329	2.02972	-0.0012207	5	0.00975	0.00732422	1.93329	2.03094	-0.0012207	5	0.00983333	0.00701904	1.93482	2.03186	-0.000610352	5	0.00991667	0.00793457	1.93329	2.03247	-0.000610352	5	0.01	0.00732422	1.93176	2.03522	0	5	0.0100833	0.00762939	1.93024	2.03735	-0.000915527	5	0.0101667	0.00793457	1.93787	2.0401	-0.000915527	5	0.01025	0.00732422	1.93176	2.04376	-0.000610352	5	0.0103333	0.00762939	1.93024	2.04803	-0.000610352	5	0.0104167	0.00732422	1.93634	2.05139	0.000305176	5	0.0105	0.00823975	1.92871	2.05444	-0.000610352	5	0.0105833	0.00793457	1.93024	2.0575	-0.000610352	5	0.0106667	0.00823975	1.93634	2.05902	-0.000915527	5	0.01075	0.00762939	1.93176	2.05963	0.000305176	5	0.0108333	0.00793457	1.93329	2.05872	-0.000610352	5	0.0109167	0.00732422	1.93482	2.05811	-0.000610352	5	0.011	0.00793457	1.93024	2.05627	-0.000915527	5	0.0110833	0.00732422	1.92719	2.05383	-0.000915527	5	0.0111667	0.00793457	1.93482	2.05048	-0.000610352	5	0.01125	0.00793457	1.93176	2.04559	-0.000610352	5	0.0113333	0.00793457	1.93482	2.04102	0	5	0.0114167	0.00823975	1.93787	2.03522	-0.0012207	5	0.0115	0.00793457	1.93176	2.03003	0.000610352	5	0.0115833	0.00793457	1.93024	2.02484	0	5	0.0116667	0.00793457	1.93939	2.02148	-0.000305176	5	0.01175	0.00793457	1.93176	2.01935	-0.000610352	5	0.0118333	0.00762939	1.93329	2.0163	0.000305176	5	0.0119167	0.00823975	1.93939	2.01447	-0.000915527	5	0.012	0.00854492	1.93329	2.01263	0.000610352	5	0.0120833	0.00793457	1.93176	2.00867	0.000305176	5	0.0121667	0.00854492	1.93939	2.00653	-0.000915527	5	0.01225	0.00793457	1.93329	2.00134	-0.000305176	5	0.0123333	0.0088501	1.93329	1.99554	-0.000610352	5	0.0124167	0.00854492	1.93787	1.9873	-0.000610352	5	0.0125	0.00854492	1.93329	1.97998	0	5	0.0125833	0.00823975	1.93482	1.97021	-0.000915527	5	0.0126667	0.0088501	1.93482	1.96167	-0.000305176	5	0.01275	0.00823975	1.93176	1.95374	0.000305176	5	0.0128333	0.00823975	1.93329	1.94427	-0.000305176	5	0.0129167	0.00823975	1.93329	1.93665	0	5	0.013	0.00762939	1.93176	1.92627	-0.000610352	5	0.0130833	0.00823975	1.93024	1.91742	-0.000305176	5	0.0131667	0.00823975	1.93482	1.90582	0	5	0.01325	0.00762939	1.93329	1.89178	-0.000610352	5	0.0133333	0.00793457	1.92871	1.87317	-0.00152588	5	0.0134167	0.00823975	1.93176	1.84906	-0.000305176	5	0.0135	0.00823975	1.93482	1.81854	-0.000610352	5	0.0135833	0.00793457	1.93329	1.78467	-0.0012207	5	0.0136667	0.00823975	1.93482	1.74988	-0.000610352	5	0.01375	0.00793457	1.93329	1.71356	-0.0012207	5	0.0138333	0.00762939	1.92871	1.68182	-0.000610352	5	0.0139167	0.00762939	1.93329	1.65344	-0.0012207	5	0.014	0.00823975	1.93024	1.62842	-0.000305176	5	0.0140833	0.00762939	1.93024	1.61041	-0.0012207	5	0.0141667	0.00732422	1.93634	1.59576	-0.000610352	5	0.01425	0.00762939	1.93329	1.58508	-0.00183105	5	0.0143333	0.00854492	1.93176	1.57959	0	5	0.0144167	0.00793457	1.93024	1.57806	0.000305176	5	0.0145	0.00732422	1.93329	1.57837	0	5	0.0145833	0.00823975	1.93634	1.5799	0	5	0.0146667	0.00762939	1.93176	1.58356	-0.000305176	5	0.01475	0.00823975	1.93329	1.58569	-0.000305176	5	0.0148333	0.00762939	1.93176	1.58905	-0.000610352	5	0.0149167	0.00854492	1.93482	1.59027	-0.0012207	5	0.015	0.00823975	1.93787	1.59149	-0.000305176	5	0.0150833	0.00823975	1.93024	1.59241	0	5	0.0151667	0.00793457	1.92566	1.58905	-0.000610352	5	0.01525	0.00793457	1.93634	1.58661	-0.000610352	5	0.0153333	0.00793457	1.93024	1.58051	-0.000915527	5	0.0154167	0.00823975	1.93329	1.57227	-0.000305176	5	0.0155	0.00823975	1.93634	1.56067	-0.000610352	5	0.0155833	0.00823975	1.93482	1.5451	0.000610352	5	0.0156667	0.00823975	1.93024	1.52771	-0.000610352	5	0.01575	0.00823975	1.93634	1.50635	-0.0012207	5	0.0158333	0.00823975	1.93482	1.48499	0.000305176	5	0.0159167	0.00823975	1.93024	1.46484	-0.000305176	5	0.016	0.0088501	1.93024	1.44745	-0.000610352	5	0.0160833	0.00762939	1.93024	1.43402	-0.000610352	5	0.0161667	0.00793457	1.93176	1.42639	-0.000915527	5	0.01625	0.00823975	1.93787	1.4209	-0.0012207	5	0.0163333	0.00915527	1.93024	1.41724	0.000610352	5	0.0164167	0.00823975	1.93329	1.41449	-0.000915527	5	0.0165	0.00854492	1.93634	1.41266	-0.000610352	5	0.0165833	0.00854492	1.92871	1.40961	-0.000915527	5	0.0166667	0.00854492	1.93176	1.40594	0	5	0.01675	0.0088501	1.93787	1.40411	-0.000915527	5	0.0168333	0.00762939	1.93329	1.40259	0.000305176	5	0.0169167	0.00793457	1.93329	1.40228	0	5	0.017	0.00762939	1.93634	1.40411	-0.000610352	5	0.0170833	0.00823975	1.93176	1.40625	-0.000610352	5	0.0171667	0.00823975	1.93482	1.40961	-0.000915527	5	0.01725	0.00854492	1.93634	1.41113	-0.0012207	5	0.0173333	0.00854492	1.93482	1.41113	0	5	0.0174167	0.00793457	1.93176	1.41022	-0.000610352	5	0.0175	0.00823975	1.93787	1.40869	0	5	0.0175833	0.00762939	1.92871	1.40503	-0.000915527	5	0.0176667	0.00793457	1.93176	1.40167	-0.000610352	5	0.01775	0.00854492	1.93787	1.39771	-0.00183105	5	0.0178333	0.00823975	1.92871	1.39343	0	5	0.0179167	0.00762939	1.93176	1.38733	-0.000915527	5	0.018	0.00823975	1.93482	1.38	0	5	0.0180833	0.00762939	1.92871	1.36963	-0.00152588	5	0.0181667	0.00823975	1.93329	1.3559	-0.000915527	5	0.01825	0.00854492	1.93787	1.33881	-0.00183105	5	0.0183333	0.00823975	1.93024	1.31958	0	5	0.0184167	0.00793457	1.93329	1.297	-0.000915527	5	0.0185	0.00823975	1.93482	1.27472	0	5	0.0185833	0.0088501	1.93176	1.25092	-0.000915527	5	0.0186667	0.00823975	1.92719	1.22864	-0.0012207	5	0.01875	0.00823975	1.93482	1.2085	-0.000305176	5	0.0188333	0.00762939	1.92871	1.19049	-0.000915527	5	0.0189167	0.00793457	1.93329	1.17859	-0.000305176	5	0.019	0.00854492	1.93329	1.17157	-0.000915527	5	0.0190833	0.00793457	1.93024	1.16791	-0.000915527	5	0.0191667	0.00823975	1.93024	1.16882	-0.000915527	5	0.01925	0.0088501	1.93482	1.17065	0	5	0.0193333	0.00823975	1.93329	1.17279	-0.00152588	5	0.0194167	0.0088501	1.92871	1.17584	0.000305176	5	0.0195	0.00854492	1.93329	1.17523	-0.000915527	5	0.0195833	0.00823975	1.93482	1.17432	-0.000915527	5	0.0196667	0.00854492	1.93329	1.17004	-0.00152588	5	0.01975	0.0088501	1.93024	1.16425	-0.000915527	5	0.0198333	0.00854492	1.93482	1.15479	-0.000915527	5	0.0199167	0.00854492	1.93329	1.14716	-0.000915527	5	0.02	0.00793457	1.93482	1.138	-0.000915527	5	0.0200833	0.00823975	1.93329	1.12915	-0.000610352	5	0.0201667	0.00823975	1.93482	1.12122	-0.000610352	5	0.02025	0.00793457	1.93329	1.11206	-0.000610352	5	0.0203333	0.00854492	1.93329	1.10291	-0.000915527	5	0.0204167	0.00823975	1.93482	1.09436	-0.000610352	5	0.0205	0.00823975	1.93329	1.07849	-0.000915527	5	0.0205833	0.00854492	1.93634	1.05774	-0.000610352	5	0.0206667	0.0088501	1.93329	1.03088	0.000610352	5	0.02075	0.00823975	1.92719	1.00128	-0.000610352	5	0.0208333	0.00854492	1.93482	0.970154	-0.000610352	5	0.0209167	0.00793457	1.93176	0.941162	-0.000305176	5	0.021	0.0088501	1.93176	0.915527	-0.000610352	5	0.0210833	0.00854492	1.93482	0.894775	-0.000915527	5	0.0211667	0.00854492	1.93329	0.879822	0	5	0.02125	0.00823975	1.93176	0.870056	0.000305176	5	0.0213333	0.00854492	1.93787	0.866089	-0.000915527	5	0.0214167	0.0088501	1.93024	0.866394	0	5	0.0215	0.00823975	1.93329	0.86853	-0.000915527	5	0.0215833	0.00854492	1.93634	0.874023	-0.000610352	5	0.0216667	0.00823975	1.92566	0.880127	-0.000610352	5	0.02175	0.00823975	1.93482	0.888977	-0.000610352	5	0.0218333	0.0088501	1.93787	0.896606	-0.000915527	5	0.0219167	0.00854492	1.93176	0.905151	-0.000610352	5	0.022	0.00915527	1.93024	0.910034	0.000305176	5	0.0220833	0.00793457	1.93329	0.916748	0	5	0.0221667	0.00854492	1.93176	0.920715	-0.000610352	5	0.02225	0.00854492	1.92871	0.924072	-0.000915527	5	0.0223333	0.00915527	1.93939	0.925293	-0.000915527	5	0.0224167	0.00823975	1.93329	0.923462	0	5	0.0225	0.0088501	1.93329	0.9198	-0.000610352	5	0.0225833	0.0088501	1.93176	0.911255	-0.000305176	5	0.0226667	0.00946045	1.93329	0.896301	-0.000305176	5	0.02275	0.00915527	1.93482	0.874634	-0.0012207	5	0.0228333	0.00823975	1.93176	0.844116	-0.000610352	5	0.0229167	0.00823975	1.93329	0.806885	0	5	0.023	0.00854492	1.93329	0.766602	-0.000610352	5	0.0230833	0.00823975	1.93024	0.727234	-0.000610352	5	0.0231667	0.0088501	1.92871	0.689392	-0.000915527	5	0.02325	0.00854492	1.93329	0.657654	-0.000915527	5	0.0233333	0.00793457	1.93329	0.630798	0	5	0.0234167	0.00823975	1.93024	0.60791	-0.000305176	5	0.0235	0.00762939	1.93024	0.588074	-0.000915527	5	0.0235833	0.00793457	1.93482	0.566711	-0.000305176	5	0.0236667	0.00762939	1.93482	0.543518	-0.00152588	5	0.02375	0.00793457	1.93329	0.518799	-0.00152588	5	0.0238333	0.00762939	1.93482	0.49408	-0.000305176	5	0.0239167	0.00823975	1.93329	0.469666	-0.0012207	5	0.024	0.00793457	1.93024	0.447998	-0.000610352	5	0.0240833	0.00793457	1.93787	0.427856	-0.000915527	5	0.0241667	0.00854492	1.93482	0.40863	-0.000305176	5	0.02425	0.00762939	1.93329	0.393372	-0.00152588	5	0.0243333	0.00823975	1.93482	0.379333	0	5	0.0244167	0.00854492	1.92871	0.362854	-0.000915527	5	0.0245	0.00793457	1.93176	0.301819	0.000305176	5	0.0245833	0.00762939	1.92871	0.136108	-0.0012207	5	0.0246667	0.00823975	1.92871	-0.151672	-0.000610352	5	0.02475	0.00854492	1.93329	-0.539856	-0.0012207	5	0.0248333	0.00854492	1.93024	-0.988159	0	5	0.0249167	0.00762939	1.92871	-1.43494	0	5	0.025	0.00793457	1.93176	-1.82098	-0.000915527	5	0.0250833	0.00762939	1.93329	-2.11182	-0.0012207	5	0.0251667	0.00793457	1.93787	-2.28973	-0.000610352	5	0.02525	0.00823975	1.93482	-2.35992	0.000305176	5	0.0253333	0.00762939	1.93024	-2.33734	-0.000610352	5	0.0254167	0.00762939	1.94092	-2.24548	-0.000915527	5	0.0255	0.00762939	1.93482	-2.1109	-0.000915527	5	0.0255833	0.00793457	1.93787	-1.95679	0	5	0.0256667	0.00854492	1.93482	-1.79871	-0.0012207	5	0.02575	0.00823975	1.93482	-1.651	-0.000915527	5	0.0258333	0.00793457	1.93329	-1.51825	0	5	0.0259167	0.00854492	1.93939	-1.39954	-0.000915527	5	0.026	0.00793457	1.93329	-1.29608	-0.000610352	5	0.0260833	0.00823975	1.93634	-1.20605	-0.000915527	5	0.0261667	0.00854492	1.93787	-1.12915	-0.0012207	5	0.02625	0.00823975	1.93024	-1.06384	-0.000915527	5	0.0263333	0.00854492	1.93634	-1.008	-0.000305176	5	0.0264167	0.00793457	1.93939	-0.960693	-0.000610352	5	0.0265	0.00854492	1.93634	-0.924072	-0.000915527	5	0.0265833	0.00762939	1.93482	-0.89386	-0.000915527	5	0.0266667	0.00793457	1.93329	-0.870056	-0.000915527	5	0.02675	0.00823975	1.93329	-0.851135	-0.000305176	5	0.0268333	0.0088501	1.93176	-0.836792	0	5	0.0269167	0.0088501	1.93329	-0.823975	-0.000305176	5	0.027	0.00823975	1.92871	-0.816956	-0.00152588	5	0.0270833	0.00793457	1.93176	-0.809937	-0.000610352	5	0.0271667	0.00823975	1.93482	-0.808105	-0.000610352	5	0.02725	0.00793457	1.93329	-0.809021	-0.000915527	5	0.0273333	0.00793457	1.93482	-0.812683	-0.0012207	5	0.0274167	0.0088501	1.93482	-0.818787	-0.000610352	5	0.0275	0.00823975	1.93329	-0.827026	-0.000915527	5	0.0275833	0.00823975	1.93482	-0.840759	-0.000610352	5	0.0276667	0.00823975	1.93329	-0.860901	-0.000610352	5	0.02775	0.00823975	1.93482	-0.895996	-0.000610352	5	0.0278333	0.00823975	1.93482	-0.946655	-0.00183105	5	0.0279167	0.00854492	1.93482	-1.0141	0.000305176	5	0.028	0.00823975	1.92871	-1.09833	-0.0012207	5	0.0280833	0.00823975	1.93024	-1.21918	-0.000610352	5	0.0281667	0.00793457	1.93329	-1.40289	-0.00152588	5	0.02825	0.00823975	1.93482	-1.65436	-0.000610352	5	0.0283333	0.00854492	1.93176	-1.96136	-0.0012207	5	0.0284167	0.00823975	1.92871	-2.29767	0	5	0.0285	0.00732422	1.93329	-2.63123	-0.0012207	5	0.0285833	0.00793457	1.93329	-2.93579	-0.000915527	5	0.0286667	0.00732422	1.93634	-3.19305	-0.000610352	5	0.02875	0.00793457	1.93482	-3.39233	-0.000915527	5	0.0288333	0.00823975	1.93329	-3.53119	-0.000305176	5	0.0289167	0.00793457	1.93176	-3.61237	0	5	0.029	0.00793457	1.93634	-3.64349	-0.000915527	5	0.0290833	0.00762939	1.93329	-3.63525	-0.000305176	5	0.0291667	0.00762939	1.93176	-3.59863	-0.00152588	5	0.02925	0.00793457	1.93634	-3.54248	0	5	0.0293333	0.00701904	1.93329	-3.4787	-0.000915527	5	0.0294167	0.00793457	1.93482	-3.41492	-0.000915527	5	0.0295	0.00793457	1.93634	-3.35602	-0.000915527	5	0.0295833	0.00793457	1.93634	-3.30719	-0.000610352	5	0.0296667	0.00793457	1.93634	-3.26904	-0.0012207	5	0.02975	0.00823975	1.93024	-3.2428	-0.000610352	5	0.0298333	0.00762939	1.93176	-3.22632	-0.00183105	5	0.0299167	0.00732422	1.93482	-3.22021	-0.000610352	5	0.03	0.00823975	1.93787	-3.22144	0	5	0.0300833	0.00762939	1.93787	-3.22815	-0.000915527	5	0.0301667	0.00762939	1.93329	-3.23822	-0.000610352	5	0.03025	0.00793457	1.93482	-3.2489	-0.000915527	5	0.0303333	0.00854492	1.93176	-3.26111	-0.000305176	5	0.0304167	0.00793457	1.93787	-3.26904	-0.000610352	5	0.0305	0.00793457	1.93329	-3.27606	0	5	0.0305833	0.00823975	1.94245	-3.28217	-0.000610352	5	0.0306667	0.00854492	1.93329	-3.28552	-0.000610352	5	0.03075	0.00762939	1.93939	-3.29071	-0.000610352	5	0.0308333	0.00762939	1.94092	-3.29254	-0.000610352	5	0.0309167	0.00762939	1.93024	-3.29651	-0.00183105	5	0.031	0.00793457	1.93329	-3.29865	-0.000305176	5	0.0310833	0.00823975	1.94092	-3.302	-0.000915527	5	0.0311667	0.00793457	1.93329	-3.30505	0	5	0.03125	0.00793457	1.93329	-3.30872	-0.000610352	5	0.0313333	0.00762939	1.93482	-3.31024	-0.000305176	5	0.0314167	0.00793457	1.93024	-3.31207	-0.0012207	5	0.0315	0.00823975	1.93634	-3.3139	-0.00183105	5	0.0315833	0.00823975	1.93482	-3.31421	-0.000915527	5	0.0316667	0.00732422	1.93634	-3.31451	-0.00152588	5	0.03175	0.00823975	1.93329	-3.31329	-0.000610352	5	0.0318333	0.00762939	1.93482	-3.31116	-0.0012207	5	0.0319167	0.00762939	1.93634	-3.30994	-0.000915527	5	0.032	0.00793457	1.93634	-3.30627	-0.000915527	5	0.0320833	0.00732422	1.93329	-3.30261	-0.000915527	5	0.0321667	0.00793457	1.93939	-3.2959	-0.000610352	5	0.03225	0.00793457	1.93176	-3.28888	0	5	0.0323333	0.00762939	1.93329	-3.28369	-0.000915527	5	0.0324167	0.00854492	1.93634	-3.2782	-0.000305176	5	0.0325	0.00762939	1.93024	-3.27332	-0.000915527	5	0.0325833	0.00762939	1.93482	-3.2666	-0.000915527	5	0.0326667	0.00732422	1.93787	-3.26172	-0.00152588	5	0.03275	0.00793457	1.93329	-3.25775	-0.000610352	5	0.0328333	0.00823975	1.93329	-3.25714	-0.0012207	5	0.0329167	0.00823975	1.93482	-3.2605	0	5	0.033	0.00762939	1.93329	-3.27179	-0.000610352	5	0.0330833	0.00762939	1.93329	-3.29651	0	5	0.0331667	0.00854492	1.93482	-3.33557	-0.000610352	5	0.03325	0.00762939	1.93176	-3.38989	-0.0012207	5	0.0333333	0.00793457	1.93482	-3.45337	-0.000915527	5	0.0334167	0.00793457	1.93482	-3.52081	-0.000610352	5	0.0335	0.00823975	1.93329	-3.5849	-0.000305176	5	0.0335833	0.00732422	1.93482	-3.64258	-0.000305176	5	0.0336667	0.00671387	1.93176	-3.69049	-0.000915527	5	0.03375	0.00793457	1.93634	-3.72589	-0.000610352	5	0.0338333	0.00762939	1.93329	-3.74847	-0.0012207	5	0.0339167	0.00823975	1.93329	-3.75824	-0.000305176	5	0.034	0.00762939	1.93787	-3.75519	-0.000610352	5	0.0340833	0.00762939	1.93329	-3.74481	-0.0012207	5	0.0341667	0.00793457	1.93329	-3.72711	-0.000915527	5	0.03425	0.00793457	1.93634	-3.70636	-0.000915527	5	0.0343333	0.00793457	1.93634	-3.68561	-0.0012207	5	0.0344167	0.00823975	1.93482	-3.66486	-0.000915527	5	0.0345	0.00762939	1.93787	-3.64807	0	5	0.0345833	0.00762939	1.93482	-3.63281	-0.000305176	5	0.0346667	0.00854492	1.93482	-3.62213	-0.000610352	5	0.03475	0.00823975	1.93176	-3.61481	0	5	0.0348333	0.00823975	1.93787	-3.61023	0	5	0.0349167	0.00793457	1.93329	-3.60626	-0.000915527	5	0.035	0.00762939	1.93482	-3.60718	-0.000305176	5	0.0350833	0.00823975	1.94092	-3.60718	-0.000915527	5	0.0351667	0.00793457	1.93329	-3.60809	-0.0012207	5	0.03525	0.00854492	1.93329	-3.60931	-0.000915527	5	0.0353333	0.00793457	1.93787	-3.60992	-0.00152588	5	0.0354167	0.00823975	1.93329	-3.61115	-0.000610352	5	0.0355	0.00793457	1.93482	-3.61237	-0.000305176	5	0.0355833	0.00793457	1.93176	-3.61359	-0.000915527	5	0.0356667	0.00854492	1.93482	-3.61633	-0.000915527	5	0.03575	0.00793457	1.93634	-3.62	-0.000915527	5	0.0358333	0.00732422	1.92871	-3.62518	-0.000915527	5	0.0359167	0.00823975	1.93482	-3.62976	-0.000610352	5	0.036	0.00793457	1.93329	-3.63617	-0.00152588	5	0.0360833	0.00823975	1.93482	-3.64502	-0.000305176	5	0.0361667	0.00762939	1.93482	-3.65601	-0.000610352	5	0.03625	0.00854492	1.93329	-3.66974	0	5	0.0363333	0.00823975	1.93482	-3.68805	0	5	0.0364167	0.00823975	1.93939	-3.7085	-0.0012207	5	0.0365	0.00793457	1.93482	-3.73138	-0.000305176	5	0.0365833	0.00823975	1.93787	-3.75732	0	5	0.0366667	0.00793457	1.93482	-3.78235	-0.000610352	5	0.03675	0.00793457	1.93482	-3.80798	-0.00152588	5	0.0368333	0.00732422	1.93482	-3.83087	-0.000610352	5	0.0369167	0.00793457	1.93634	-3.85315	0	5	0.037	0.00762939	1.93482	-3.87177	-0.000610352	5	0.0370833	0.00854492	1.93329	-3.88519	-0.000610352	5	0.0371667	0.00762939	1.93634	-3.89465	-0.000915527	5	0.03725	0.00793457	1.93482	-3.89893	-0.000610352	5	0.0373333	0.00823975	1.93329	-3.90015	0.000305176	5	0.0374167	0.00762939	1.93329	-3.89801	-0.000610352	5	0.0375	0.00793457	1.93634	-3.89282	0	5	0.0375833	0.00823975	1.93024	-3.88489	-0.000610352	5	0.0376667	0.00793457	1.93482	-3.87695	0.000305176	5	0.03775	0.00793457	1.93634	-3.86688	-0.0012207	5	0.0378333	0.00762939	1.93329	-3.85956	-0.000610352	5	0.0379167	0.00762939	1.93176	-3.84918	-0.000610352	5	0.038	0.00823975	1.93939	-3.84125	-0.0012207	5	0.0380833	0.00793457	1.93329	-3.83453	-0.000610352	5	0.0381667	0.00762939	1.93176	-3.82874	-0.0012207	5	0.03825	0.00701904	1.93482	-3.82294	-0.000610352	5	0.0383333	0.00793457	1.93939	-3.81775	0.000610352	5	0.0384167	0.00762939	1.93787	-3.81226	0.000305176	5	0.0385	0.00762939	1.93024	-3.80737	-0.000305176	5	0.0385833	0.00762939	1.93939	-3.80096	-0.000610352	5	0.0386667	0.00762939	1.93176	-3.79578	-0.000305176	5	0.03875	0.00732422	1.93176	-3.79089	-0.000915527	5	0.0388333	0.00793457	1.93787	-3.78571	-0.000610352	5	0.0389167	0.00762939	1.92871	-3.78326	-0.0012207	5	0.039	0.00732422	1.93482	-3.78021	-0.000305176	5	0.0390833	0.00762939	1.93787	-3.77869	-0.000610352	5	0.0391667	0.00762939	1.93329	-3.78174	-0.000610352	5	0.03925	0.00701904	1.93329	-3.79578	-0.000915527	5	0.0393333	0.00732422	1.93482	-3.83026	-0.000610352	5	0.0394167	0.00762939	1.93176	-3.89618	0	5	0.0395	0.00762939	1.93176	-3.99414	-0.0012207	5	0.0395833	0.00762939	1.93634	-4.12079	0	5	0.0396667	0.00732422	1.93024	-4.26422	-0.000915527	5	0.03975	0.00762939	1.93482	-4.41193	0	5	0.0398333	0.00793457	1.93787	-4.55383	-0.000915527	5	0.0399167	0.00701904	1.93482	-4.68018	-0.0012207	5	0.04	0.00732422	1.93787	-4.78394	0	5	0.0400833	0.00762939	1.93482	-4.86481	-0.0012207	5	0.0401667	0.00823975	1.93787	-4.91699	-0.000305176	5	0.04025	0.00762939	1.93634	-4.94843	-0.000610352	5	0.0403333	0.00762939	1.93482	-4.96155	-0.000610352	5	0.0404167	0.00793457	1.93939	-4.9585	-0.000915527	5	0.0405	0.00701904	1.93329	-4.94659	-0.000915527	5	0.0405833	0.00732422	1.93787	-4.92767	-0.000305176	5	0.0406667	0.00762939	1.93482	-4.90692	0	5	0.04075	0.00671387	1.93634	-4.88617	-0.0012207	5	0.0408333	0.00732422	1.93634	-4.86725	-0.000610352	5	0.0409167	0.00762939	1.93482	-4.85107	-0.000305176	5	0.041	0.00854492	1.93939	-4.83887	-0.000610352	5	0.0410833	0.00732422	1.93176	-4.83093	0.000610352	5	0.0411667	0.00762939	1.92871	-4.82574	-0.000610352	5	0.04125	0.00854492	1.94092	-4.82269	-0.000305176	5	0.0413333	0.00732422	1.93482	-4.82269	-0.000305176	5	0.0414167	0.00762939	1.93482	-4.82422	0	5	0.0415	0.00823975	1.93787	-4.82544	-0.000610352	5	0.0415833	0.00701904	1.93024	-4.82849	-0.000915527	5	0.0416667	0.00793457	1.93634	-4.83002	0	5	0.04175	0.00732422	1.93634	-4.83032	-0.00152588	5	0.0418333	0.00732422	1.93176	-4.83032	-0.000915527	5	0.0419167	0.00732422	1.93482	-4.8291	0	5	0.042	0.00762939	1.93634	-4.82635	-0.000610352	5	0.0420833	0.00732422	1.93482	-4.82391	-0.000915527	5	0.0421667	0.00762939	1.93329	-4.82025	-0.0012207	5	0.04225	0.00762939	1.93787	-4.81628	-0.000305176	5	0.0423333	0.00762939	1.93482	-4.81354	-0.000610352	5	0.0424167	0.00793457	1.93482	-4.80988	-0.000305176	5	0.0425	0.00762939	1.93634	-4.80652	-0.000610352	5	0.0425833	0.00762939	1.93787	-4.80469	-0.000610352	5	0.0426667	0.00793457	1.93634	-4.80286	0.000305176	5	0.04275	0.00701904	1.93329	-4.80225	-0.0012207	5	0.0428333	0.00732422	1.93787	-4.80133	-0.00152588	5	0.0429167	0.00762939	1.93634	-4.80072	0.000610352	5	0.043	0.00762939	1.93329	-4.80133	-0.000915527	5	0.0430833	0.00732422	1.93482	-4.7995	0	5	0.0431667	0.00762939	1.93024	-4.7995	0	5	0.04325	0.00732422	1.93482	-4.79889	-0.000915527	5	0.0433333	0.00762939	1.93024	-4.79828	-0.0012207	5	0.0434167	0.00732422	1.93329	-4.79828	-0.0012207	5	0.0435	0.00793457	1.93176	-4.79706	-0.0012207	5	0.0435833	0.00762939	1.93482	-4.79675	-0.000305176	5	0.0436667	0.00762939	1.93634	-4.79706	-0.000610352	5	0.04375	0.00732422	1.93329	-4.79706	0.000305176	5	0.0438333	0.00732422	1.93482	-4.79706	-0.000305176	5	0.0439167	0.00793457	1.93787	-4.79675	-0.00152588	5	0.044	0.00793457	1.93482	-4.79706	0.000305176	5	0.0440833	0.00762939	1.93329	-4.79828	-0.000305176	5	0.0441667	0.00762939	1.93634	-4.79889	-0.000610352	5	0.04425	0.00793457	1.93176	-4.79919	-0.000305176	5	0.0443333	0.00701904	1.93634	-4.79919	-0.00152588	5	0.0444167	0.00762939	1.93176	-4.79797	-0.000610352	5	0.0445	0.00732422	1.93634	-4.79828	-0.000610352	5	0.0445833	0.00823975	1.93482	-4.79614	-0.000610352	5	0.0446667	0.00793457	1.93482	-4.79462	-0.000610352	5	0.04475	0.00762939	1.93787	-4.79218	-0.000305176	5	0.0448333	0.00793457	1.93634	-4.78882	0	5	0.0449167	0.00823975	1.93024	-4.78607	-0.000305176	5	0.045	0.00762939	1.93482	-4.78271	-0.000305176	5	0.0450833	0.00793457	1.93176	-4.77753	-0.000915527	5	0.0451667	0.00793457	1.93329	-4.77509	-0.000610352	5	0.04525	0.00823975	1.93787	-4.77203	0.000305176	5	0.0453333	0.00793457	1.93482	-4.77051	-0.0012207	5	0.0454167	0.00793457	1.93787	-4.76868	-0.000915527	5	0.0455	0.00823975	1.93787	-4.76898	-0.000610352	5	0.0455833	0.00701904	1.93482	-4.76898	-0.0012207	5	0.0456667	0.00793457	1.93329	-4.76807	-0.000915527	5	0.04575	0.00732422	1.93634	-4.7702	-0.0012207	5	0.0458333	0.00823975	1.93482	-4.76959	-0.000610352	5	0.0459167	0.00793457	1.93482	-4.7702	0.000305176	5	0.046	0.00762939	1.93176	-4.76959	0	5	0.0460833	0.00823975	1.93939	-4.76807	-0.00152588	5	0.0461667	0.00732422	1.93482	-4.76562	0	5	0.04625	0.00793457	1.93024	-4.76196	-0.0012207	5	0.0463333	0.00732422	1.93329	-4.75647	-0.000610352	5	0.0464167	0.00793457	1.93634	-4.75189	-0.000305176	5	0.0465	0.00762939	1.93329	-4.74457	-0.000305176	5	0.0465833	0.00732422	1.93176	-4.73755	-0.000915527	5	0.0466667	0.00823975	1.93634	-4.72778	-0.000610352	5	0.04675	0.00762939	1.93329	-4.71802	-0.000305176	5	0.0468333	0.00793457	1.93329	-4.70673	-0.000305176	5	0.0469167	0.00793457	1.93634	-4.69421	-0.000915527	5	0.047	0.00793457	1.93176	-4.6817	-0.0012207	5	0.0470833	0.00762939	1.93482	-4.66766	0	5	0.0471667	0.00823975	1.93634	-4.65424	-0.0012207	5	0.04725	0.00732422	1.92871	-4.63989	-0.000610352	5	0.0473333	0.00793457	1.93634	-4.62433	-0.000305176	5	0.0474167	0.00762939	1.93329	-4.60846	-0.000610352	5	0.0475	0.00732422	1.93329	-4.59381	-0.000305176	5	0.0475833	0.00732422	1.93482	-4.58008	0.000305176	5	0.0476667	0.00732422	1.93329	-4.5694	0.000305176	5	0.04775	0.00762939	1.93939	-4.55963	-0.000610352	5	0.0478333	0.00732422	1.93482	-4.5517	-0.000915527	5	0.0479167	0.00823975	1.93329	-4.54712	0	5	0.048	0.00762939	1.93787	-4.54315	-0.000610352	5	0.0480833	0.00762939	1.93329	-4.54163	0	5	0.0481667	0.00793457	1.93787	-4.53949	-0.000610352	5	0.04825	0.00793457	1.93939	-4.53705	-0.000915527	5	0.0483333	0.00762939	1.93482	-4.53522	0	5	0.0484167	0.00701904	1.93482	-4.53094	-0.000305176	5	0.0485	0.00823975	1.93939	-4.52484	-0.000915527	5	0.0485833	0.00762939	1.93482	-4.51721	-0.0012207	5	0.0486667	0.00762939	1.93024	-4.50836	-0.000915527	5	0.04875	0.00793457	1.93787	-4.49951	-0.000610352	5	0.0488333	0.00732422	1.93634	-4.49249	-0.0012207	5	0.0489167	0.00793457	1.93634	-4.48425	-0.000915527	5	0.049	0.00762939	1.93787	-4.47754	0.000305176	5	0.0490833	0.00823975	1.93939	-4.47205	-0.000305176	5	0.0491667	0.00823975	1.93787	-4.46747	0	5	0.04925	0.00793457	1.93634	-4.46442	-0.000610352	5	0.0493333	0.00823975	1.93329	-4.46136	-0.00152588	5	0.0494167	0.00762939	1.93482	-4.45892	0	5	0.0495	0.00793457	1.93329	-4.45923	-0.00152588	5	0.0495833	0.00762939	1.93482	-4.45679	-0.000915527	5	0.0496667	0.00701904	1.93176	-4.45526	-0.00152588	5	0.04975	0.00762939	1.93634	-4.45435	-0.000915527	5	0.0498333	0.00823975	1.93482	-4.45282	0	5	0.0499167	0.00793457	1.93176	-4.4519	-0.0012207	5	0.05	0.00793457	1.93482	-4.44946	-0.000610352	5	0.0500833	0.00823975	1.93634	-4.44641	-0.0012207	5	0.0501667	0.00793457	1.93939	-4.44244	-0.000915527	5	0.05025	0.00854492	1.93482	-4.43665	-0.000915527	5	0.0503333	0.00732422	1.93482	-4.42871	0	5	0.0504167	0.00823975	1.93787	-4.41925	-0.000610352	5	0.0505	0.00762939	1.93024	-4.40918	-0.000610352	5	0.0505833	0.00823975	1.92871	-4.3988	0	5	0.0506667	0.00762939	1.93329	-4.38751	-0.0012207	5	0.05075	0.00793457	1.93329	-4.37683	-0.000305176	5	0.0508333	0.00823975	1.93482	-4.36676	-0.000610352	5	0.0509167	0.00732422	1.93329	-4.35699	-0.000915527	5	0.051	0.00732422	1.93939	-4.34692	-0.000610352	5	0.0510833	0.00762939	1.93634	-4.3396	-0.000915527	5	0.0511667	0.00793457	1.93634	-4.33197	-0.000610352	5	0.05125	0.00823975	1.93787	-4.32556	-0.0012207	5	0.0513333	0.00762939	1.93176	-4.31885	-0.000915527	5	0.0514167	0.00762939	1.93024	-4.30908	-0.000305176	5	0.0515	0.00793457	1.93787	-4.2981	-0.000915527	5	0.0515833	0.00823975	1.93176	-4.28589	0.000610352	5	0.0516667	0.00762939	1.93482	-4.27277	-0.000915527	5	0.05175	0.00762939	1.93482	-4.2569	-0.0012207	5	0.0518333	0.00793457	1.93482	-4.24316	-0.000915527	5	0.0519167	0.00732422	1.93634	-4.22852	-0.0012207	5	0.052	0.00762939	1.93329	-4.21448	0	5	0.0520833	0.00793457	1.93329	-4.20227	-0.000305176	5	0.0521667	0.00793457	1.93329	-4.19128	-0.000610352	5	0.05225	0.00793457	1.93024	-4.18335	-0.000915527	5	0.0523333	0.00854492	1.93329	-4.17694	-0.000915527	5	0.0524167	0.00732422	1.93482	-4.17236	-0.000610352	5	0.0525	0.00762939	1.93329	-4.1684	-0.0012207	5	0.0525833	0.00823975	1.93634	-4.16504	-0.0012207	5	0.0526667	0.00793457	1.93482	-4.16229	0	5	0.05275	0.00823975	1.93634	-4.16107	-0.000305176	5	0.0528333	0.00793457	1.93329	-4.1571	-0.000610352	5	0.0529167	0.00823975	1.93634	-4.15497	0	5	0.053	0.00793457	1.93482	-4.15161	-0.000305176	5	0.0530833	0.00762939	1.93024	-4.14948	-0.000915527	5	0.0531667	0.00823975	1.93939	-4.14703	0.000305176	5	0.05325	0.00793457	1.93024	-4.1449	-0.000610352	5	0.0533333	0.00732422	1.93482	-4.14368	0	5	0.0534167	0.00762939	1.93787	-4.14062	-0.000305176	5	0.0535	0.00762939	1.93024	-4.14001	-0.0012207	5	0.0535833	0.00762939	1.93329	-4.1394	-0.0012207	5	0.0536667	0.00671387	1.93939	-4.14307	-0.000915527	5	0.05375	0.00793457	1.93634	-4.14673	0.000305176	5	0.0538333	0.00762939	1.93482	-4.14948	-0.000610352	5	0.0539167	0.00793457	1.93329	-4.14825	-0.000610352	5	0.054	0.00793457	1.93482	-4.1391	-0.000305176	5	0.0540833	0.00762939	1.93024	-4.12689	-0.000610352	5	0.0541667	0.00762939	1.93634	-4.1098	-0.000610352	5	0.05425	0.00793457	1.93024	-4.09424	-0.00152588	5	0.0543333	0.00732422	1.93482	-4.07959	-0.000305176	5	0.0544167	0.00732422	1.93939	-4.07013	-0.000305176	5	0.0545	0.00732422	1.93787	-4.06403	-0.000610352	5	0.0545833	0.00793457	1.93176	-4.06036	0	5	0.0546667	0.00762939	1.93176	-4.05945	-0.000915527	5	0.05475	0.00793457	1.93787	-4.05945	-0.000915527	5	0.0548333	0.00732422	1.93024	-4.06158	0.000610352	5	0.0549167	0.00762939	1.93176	-4.06372	-0.000610352	5	0.055	0.00762939	1.93329	-4.06525	0	5	0.0550833	0.00762939	1.93329	-4.06616	-0.000610352	5	0.0551667	0.00793457	1.93634	-4.06494	-0.00152588	5	0.05525	0.00793457	1.93482	-4.06372	-0.000305176	5	0.0553333	0.00762939	1.93482	-4.06189	-0.0012207	5	0.0554167	0.00793457	1.93176	-4.05792	-0.000610352	5	0.0555	0.00793457	1.93482	-4.05487	0	5	0.0555833	0.00762939	1.93634	-4.05151	0	5	0.0556667	0.00762939	1.93482	-4.04846	0	5	0.05575	0.00793457	1.93176	-4.04572	-0.000610352	5	0.0558333	0.00793457	1.93787	-4.04266	-0.000915527	5	0.0559167	0.00823975	1.93329	-4.04053	-0.000915527	5	0.056	0.00701904	1.93329	-4.03839	-0.000305176	5	0.0560833	0.00823975	1.93176	-4.03564	-0.000915527	5	0.0561667	0.00762939	1.92871	-4.03442	-0.0012207	5	0.05625	0.00762939	1.93482	-4.03229	-0.000610352	5	0.0563333	0.00854492	1.93482	-4.03046	-0.000915527	5	0.0564167	0.00732422	1.93024	-4.03046	-0.00152588	5	0.0565	0.00762939	1.93482	-4.02802	-0.000610352	5	0.0565833	0.00762939	1.93482	-4.02802	-0.000610352	5	0.0566667	0.00732422	1.93482	-4.02802	-0.0012207	5	0.05675	0.00793457	1.93787	-4.02924	0	5	0.0568333	0.00762939	1.93482	-4.02985	-0.000305176	5	0.0569167	0.00793457	1.93787	-4.03076	-0.000610352	5	0.057	0.00762939	1.93787	-4.03168	-0.000610352	5	0.0570833	0.00732422	1.93787	-4.03107	-0.000305176	5	0.0571667	0.00732422	1.93939	-4.03107	-0.000305176	5	0.05725	0.00732422	1.93634	-4.02985	-0.000610352	5	0.0573333	0.00732422	1.93329	-4.02771	-0.000610352	5	0.0574167	0.00762939	1.94092	-4.02466	-0.00152588	5	0.0575	0.00762939	1.93787	-4.02252	-0.0012207	5	0.0575833	0.00732422	1.93634	-4.02069	-0.000915527	5	0.0576667	0.00762939	1.93634	-4.01886	0	5	0.05775	0.00762939	1.93482	-4.01794	-0.000610352	5	0.0578333	0.00762939	1.93787	-4.01733	-0.00152588	5	0.0579167	0.00762939	1.93787	-4.01733	0	5	0.058	0.00701904	1.93176	-4.01733	-0.0012207	5	0.0580833	0.00823975	1.93634	-4.01703	-0.000915527	5	0.0581667	0.00793457	1.93176	-4.01733	0	5	0.05825	0.00732422	1.93634	-4.01764	-0.000305176	5	0.0583333	0.00762939	1.93482	-4.01825	0.000305176	5	0.0584167	0.00762939	1.92871	-4.01794	0.000305176	5	0.0585	0.00762939	1.93787	-4.01825	-0.000915527	5	0.0585833	0.00762939	1.93176	-4.01703	0.000305176	5	0.0586667	0.00762939	1.93024	-4.01886	-0.000610352	5	0.05875	0.00732422	1.93329	-4.01672	0	5	0.0588333	0.00732422	1.93482	-4.01703	-0.000610352	5	0.0589167	0.00793457	1.93482	-4.01855	-0.000915527	5	0.059	0.00701904	1.93329	-4.02496	-0.000305176	5	0.0590833	0.00823975	1.93482	-4.04175	-0.000305176	5	0.0591667	0.00762939	1.93329	-4.07318	-0.000305176	5	0.05925	0.00793457	1.93024	-4.12323	-0.000915527	5	0.0593333	0.00823975	1.93176	-4.18304	-0.000305176	5	0.0594167	0.00732422	1.93634	-4.24744	-0.00152588	5	0.0595	0.00823975	1.93482	-4.30603	-0.0012207	5	0.0595833	0.00793457	1.93482	-4.35364	-0.000305176	5	0.0596667	0.00762939	1.93634	-4.38599	-0.000915527	5	0.05975	0.00762939	1.93329	-4.3988	-0.000610352	5	0.0598333	0.00793457	1.93634	-4.39362	-0.000610352	5	0.0599167	0.00793457	1.93939	-4.37317	-0.000915527	5	0.06	0.00823975	1.93482	-4.33838	-0.000305176	5	0.0600833	0.00793457	1.93329	-4.29443	-0.00152588	5	0.0601667	0.00854492	1.93634	-4.2453	0	5	0.06025	0.00823975	1.93329	-4.19281	-0.0012207	5	0.0603333	0.00793457	1.93482	-4.14185	-0.000610352	5	0.0604167	0.00823975	1.93939	-4.09332	-0.000305176	5	0.0605	0.00732422	1.93787	-4.04938	-0.000305176	5	0.0605833	0.00732422	1.93482	-4.01093	-0.000915527	5	0.0606667	0.00823975	1.93634	-3.9798	-0.000915527	5	0.06075	0.00762939	1.94092	-3.95691	0.000305176	5	0.0608333	0.00762939	1.93482	-3.94196	-0.000610352	5	0.0609167	0.00762939	1.93482	-3.93402	-0.000305176	5	0.061	0.00732422	1.93482	-3.93158	-0.000610352	5	0.0610833	0.00823975	1.93634	-3.93188	-0.000610352	5	0.0611667	0.00762939	1.93329	-3.93677	0	5	0.06125	0.00793457	1.93787	-3.94318	-0.000305176	5	0.0613333	0.00762939	1.93329	-3.94867	0	5	0.0614167	0.00823975	1.93329	-3.95386	-0.000610352	5	0.0615	0.00762939	1.93482	-3.9563	-0.000305176	5	0.0615833	0.00732422	1.93634	-3.95569	-0.000915527	5	0.0616667	0.00762939	1.93176	-3.95294	-0.000610352	5	0.06175	0.00793457	1.93176	-3.94775	-0.000610352	5	0.0618333	0.00762939	1.93482	-3.94196	-0.000915527	5	0.0619167	0.00701904	1.93634	-3.9325	0	5	0.062	0.00762939	1.93939	-3.92365	-0.000610352	5	0.0620833	0.00762939	1.93634	-3.91388	-0.000610352	5	0.0621667	0.00823975	1.93329	-3.90228	0	5	0.06225	0.00732422	1.93176	-3.89099	-0.000305176	5	0.0623333	0.00793457	1.93939	-3.87817	-0.000305176	5	0.0624167	0.00732422	1.93482	-3.86414	0	5	0.0625	0.00762939	1.93024	-3.85101	-0.00152588	5	0.0625833	0.00793457	1.93482	-3.83575	-0.000610352	5	0.0626667	0.00762939	1.93176	-3.82263	-0.0012207	5	0.06275	0.00793457	1.93482	-3.8092	-0.000305176	5	0.0628333	0.00732422	1.93482	-3.79547	-0.000305176	5	0.0629167	0.00732422	1.93329	-3.78296	-0.0012207	5	0.063	0.00762939	1.93176	-3.77136	-0.0012207	5	0.0630833	0.00823975	1.93329	-3.7616	-0.000915527	5	0.0631667	0.00793457	1.93939	-3.75153	-0.000610352	5	0.06325	0.00793457	1.93024	-3.74329	-0.0012207	5	0.0633333	0.00762939	1.93024	-3.73505	0	5	0.0634167	0.00854492	1.93787	-3.72589	-0.00183105	5	0.0635	0.00762939	1.93329	-3.71735	0	5	0.0635833	0.00823975	1.93482	-3.70544	-0.000915527	5	0.0636667	0.00854492	1.93482	-3.69019	-0.000610352	5	0.06375	0.00793457	1.93176	-3.67371	-0.000305176	5	0.0638333	0.00823975	1.93329	-3.65479	-0.000610352	5	0.0639167	0.00823975	1.93787	-3.63281	-0.0012207	5	0.064	0.00732422	1.93482	-3.61084	0	5	0.0640833	0.00823975	1.93329	-3.58795	-0.000305176	5	0.0641667	0.00854492	1.93787	-3.56537	-0.000610352	5	0.06425	0.00823975	1.93482	-3.54645	0	5	0.0643333	0.00854492	1.93787	-3.52661	-0.000610352	5	0.0644167	0.00762939	1.93787	-3.50983	-0.000305176	5	0.0645	0.00854492	1.93939	-3.49457	0	5	0.0645833	0.00854492	1.93787	-3.48053	-0.0012207	5	0.0646667	0.00823975	1.93787	-3.46649	-0.000610352	5	0.06475	0.00793457	1.93482	-3.45306	-0.000305176	5	0.0648333	0.00793457	1.93634	-3.43933	-0.000610352	5	0.0649167	0.00823975	1.93329	-3.42468	-0.000610352	5	0.065	0.00793457	1.93939	-3.41034	-0.000915527	5	0.0650833	0.00823975	1.93482	-3.3963	0	5	0.0651667	0.00793457	1.93787	-3.38409	-0.00152588	5	0.06525	0.00793457	1.93482	-3.37128	-0.000610352	5	0.0653333	0.00701904	1.93482	-3.35999	-0.000915527	5	0.0654167	0.00823975	1.93329	-3.3493	-0.000915527	5	0.0655	0.00701904	1.93634	-3.34106	-0.000305176	5	0.0655833	0.00732422	1.93024	-3.33344	-0.00152588	5	0.0656667	0.00762939	1.93634	-3.32611	-0.000305176	5	0.06575	0.00762939	1.93329	-3.32123	-0.000305176	5	0.0658333	0.00793457	1.93787	-3.31543	-0.000915527	5	0.0659167	0.00793457	1.93024	-3.31268	-0.000305176	5	0.066	0.00823975	1.93176	-3.3075	0	5	0.0660833	0.00762939	1.93482	-3.30414	-0.000915527	5	0.0661667	0.00762939	1.93329	-3.30078	-0.000305176	5	0.06625	0.00793457	1.93482	-3.30017	-0.000305176	5	0.0663333	0.00762939	1.93634	-3.29895	-0.000915527	5	0.0664167	0.00762939	1.93329	-3.30017	-0.000915527	5	0.0665	0.00793457	1.93482	-3.30048	-0.000915527	5	0.0665833	0.00762939	1.93329	-3.30139	0	5	0.0666667	0.00762939	1.93634	-3.302	-0.000305176	5	0.06675	0.00762939	1.93329	-3.30109	-0.000915527	5	0.0668333	0.00762939	1.93329	-3.30017	0	5	0.0669167	0.00793457	1.93482	-3.29712	-0.000610352	5	0.067	0.00671387	1.93482	-3.29254	-0.000915527	5	0.0670833	0.00793457	1.93329	-3.28247	-0.000305176	5	0.0671667	0.00732422	1.94092	-3.2663	-0.000610352	5	0.06725	0.00793457	1.93634	-3.24829	0	5	0.0673333	0.00823975	1.93482	-3.22754	-0.000915527	5	0.0674167	0.00762939	1.93482	-3.20587	0	5	0.0675	0.00762939	1.93024	-3.18848	-0.000915527	5	0.0675833	0.00793457	1.93482	-3.17383	-0.00152588	5	0.0676667	0.00762939	1.93482	-3.16559	0	5	0.06775	0.00762939	1.93024	-3.16284	-0.000915527	5	0.0678333	0.00762939	1.93329	-3.1601	-0.0012207	5	0.0679167	0.00732422	1.93329	-3.15552	0	5	0.068	0.00762939	1.93482	-3.14392	-0.000915527	5	0.0680833	0.00762939	1.92871	-3.12622	-0.00152588	5	0.0681667	0.00732422	1.93329	-3.10028	-0.000305176	5	0.06825	0.00793457	1.93634	-3.0722	-0.0012207	5	0.0683333	0.00762939	1.93329	-3.04169	-0.000610352	5	0.0684167	0.00762939	1.93176	-3.0127	-0.000915527	5	0.0685	0.00762939	1.93329	-2.98645	-0.000305176	5	0.0685833	0.00732422	1.93634	-2.96295	-0.000305176	5	0.0686667	0.00793457	1.93787	-2.94312	0.000305176	5	0.06875	0.00823975	1.92871	-2.92877	0	5	0.0688333	0.0088501	1.93787	-2.91809	-0.000305176	5	0.0689167	0.00854492	1.93482	-2.91229	-0.000610352	5	0.069	0.00823975	1.93482	-2.91046	-0.000305176	5	0.0690833	0.00823975	1.93634	-2.91321	-0.000915527	5	0.0691667	0.00854492	1.93176	-2.91901	-0.000915527	5	0.06925	0.00732422	1.93787	-2.92572	0	5	0.0693333	0.00793457	1.94092	-2.93396	-0.000610352	5	0.0694167	0.00762939	1.93329	-2.94159	0.000610352	5	0.0695	0.00762939	1.93634	-2.95074	-0.000915527	5	0.0695833	0.00854492	1.93329	-2.95685	-0.000610352	5	0.0696667	0.00823975	1.93024	-2.96326	-0.0012207	5	0.06975	0.00823975	1.93634	-2.96844	-0.0012207	5	0.0698333	0.00823975	1.93634	-2.9718	-0.000610352	5	0.0699167	0.00762939	1.93176	-2.97485	-0.00183105	5	0.07	0.00823975	1.93024	-2.97607	0	5	0.0700833	0.00823975	1.93482	-2.97607	-0.00183105	5	0.0701667	0.00854492	1.93329	-2.97699	0.000305176	5	0.07025	0.00823975	1.93787	-2.97638	-0.000305176	5	0.0703333	0.00823975	1.93024	-2.97211	-0.000305176	5	0.0704167	0.00823975	1.93787	-2.95837	0	5	0.0705	0.00823975	1.93176	-2.92786	-0.000915527	5	0.0705833	0.00854492	1.93787	-2.87262	-0.0012207	5	0.0706667	0.00793457	1.93634	-2.77924	-0.000305176	5	0.07075	0.00793457	1.93329	-2.64557	-0.000915527	5	0.0708333	0.00762939	1.93634	-2.47131	-0.000915527	5	0.0709167	0.00793457	1.93634	-2.27295	-0.000915527	5	0.071	0.00793457	1.93482	-2.06268	-0.0012207	5	0.0710833	0.00762939	1.93482	-1.85394	-0.000610352	5	0.0711667	0.0088501	1.93634	-1.66077	-0.000610352	5	0.07125	0.00823975	1.93482	-1.48865	0.000305176	5	0.0713333	0.00823975	1.93482	-1.34399	-0.000305176	5	0.0714167	0.00762939	1.93329	-1.22528	-0.000610352	5	0.0715	0.00793457	1.93634	-1.13068	0	5	0.0715833	0.00823975	1.93634	-1.05316	-0.000610352	5	0.0716667	0.00854492	1.93329	-0.989685	-0.000610352	5	0.07175	0.0088501	1.93787	-0.932617	-0.0012207	5	0.0718333	0.00854492	1.93482	-0.879517	-0.000305176	5	0.0719167	0.00762939	1.93329	-0.830688	-0.000305176	5	0.072	0.00793457	1.93634	-0.782776	-0.00152588	5	0.0720833	0.00854492	1.93176	-0.739441	-0.000610352	5	0.0721667	0.00762939	1.93329	-0.699768	-0.0012207	5	0.07225	0.00762939	1.93329	-0.661926	-0.000915527	5	0.0723333	0.0088501	1.93634	-0.629272	-0.0012207	5	0.0724167	0.00854492	1.93482	-0.601807	-0.000610352	5	0.0725	0.00823975	1.93482	-0.577698	0	5	0.0725833	0.00823975	1.93329	-0.558472	-0.0012207	5	0.0726667	0.00762939	1.92871	-0.541077	-0.000915527	5	0.07275	0.00793457	1.93329	-0.528259	-0.000610352	5	0.0728333	0.00793457	1.93329	-0.516968	-0.000915527	5	0.0729167	0.00823975	1.93634	-0.507202	0	5	0.073	0.00762939	1.93024	-0.498047	-0.000915527	5	0.0730833	0.00823975	1.93634	-0.491333	-0.000610352	5	0.0731667	0.00762939	1.93482	-0.483704	-0.0012207	5	0.07325	0.00762939	1.93329	-0.476074	0.000305176	5	0.0733333	0.00854492	1.93787	-0.467529	-0.000915527	5	0.0734167	0.00854492	1.93329	-0.458679	0.000305176	5	0.0735	0.00762939	1.92871	-0.448608	0	5	0.0735833	0.00854492	1.93634	-0.440674	-0.000305176	5	0.0736667	0.00823975	1.93329	-0.431519	0	5	0.07375	0.00762939	1.93329	-0.424805	-0.000610352	5	0.0738333	0.00732422	1.93482	-0.41748	0.000305176	5	0.0739167	0.00793457	1.93024	-0.412292	-0.000915527	5	0.074	0.00854492	1.92871	-0.407104	-0.000305176	5	0.0740833	0.00793457	1.93787	-0.402832	-0.000610352	5	0.0741667	0.00793457	1.93787	-0.398865	0	5	0.07425	0.00823975	1.93482	-0.393982	-0.000305176	5	0.0743333	0.00823975	1.93939	-0.386963	-0.000305176	5	0.0744167	0.00793457	1.92871	-0.380249	-0.0012207	5	0.0745	0.00793457	1.93329	-0.370178	-0.000305176	5	0.0745833	0.00823975	1.93482	-0.357361	-0.000610352	5	0.0746667	0.00793457	1.93634	-0.343018	0.000305176	5	0.07475	0.00793457	1.93634	-0.327454	-0.000610352	5	0.0748333	0.00793457	1.93482	-0.309753	-0.000610352	5	0.0749167	0.00762939	1.93482	-0.292358	-0.000610352	5	0.075	0.00762939	1.93787	-0.276794	-0.00183105	5	0.0750833	0.00823975	1.93329	-0.263672	-0.000610352	5	0.0751667	0.00823975	1.93329	-0.254517	-0.0012207	5	0.07525	0.00793457	1.93634	-0.245056	-0.000610352	5	0.0753333	0.00762939	1.93482	-0.237427	-0.000915527	5	0.0754167	0.00793457	1.93634	-0.231934	0	5	0.0755	0.00732422	1.93634	-0.22644	-0.000915527	5	0.0755833	0.00762939	1.93024	-0.221863	0	5	0.0756667	0.00793457	1.93787	-0.214844	-0.000610352	5	0.07575	0.00854492	1.93176	-0.196838	-0.0012207	5	0.0758333	0.00823975	1.93482	-0.160828	0	5	0.0759167	0.00762939	1.93634	-0.102539	-0.000305176	5	0.076	0.00793457	1.93329	-0.0259399	-0.000610352	5	0.0760833	0.00762939	1.93176	0.0650024	-0.000915527	5	0.0761667	0.0088501	1.93939	0.165405	-0.000915527	5	0.07625	0.00762939	1.93329	0.270386	0	5	0.0763333	0.00854492	1.93329	0.375061	0	5	0.0764167	0.00823975	1.93024	0.478821	0	5	0.0765	0.00762939	1.93024	0.577087	-0.000610352	5	0.0765833	0.00762939	1.93329	0.66803	-0.0012207	5	0.0766667	0.00762939	1.93329	0.747375	-0.000915527	5	0.07675	0.00823975	1.93329	0.813293	-0.000915527	5	0.0768333	0.00823975	1.93634	0.868835	-0.000610352	5	0.0769167	0.00823975	1.93787	0.910645	-0.000915527	5	0.077	0.00854492	1.93329	0.940247	-0.000610352	5	0.0770833	0.00793457	1.93482	0.961304	-0.000915527	5	0.0771667	0.00732422	1.93024	0.975647	0	5	0.07725	0.00823975	1.93329	0.991516	-0.0012207	5	0.0773333	0.00915527	1.93634	1.01227	-0.000610352	5	0.0774167	0.0088501	1.93634	1.03912	-0.000305176	5	0.0775	0.00823975	1.93482	1.06964	-0.000610352	5	0.0775833	0.00793457	1.93482	1.10199	0	5	0.0776667	0.00823975	1.93329	1.13525	-0.000915527	5	0.07775	0.00823975	1.94092	1.16577	-0.000610352	5	0.0778333	0.00854492	1.93329	1.19293	-0.000305176	5	0.0779167	0.00823975	1.93482	1.21521	0.000305176	5	0.078	0.00793457	1.93787	1.23383	-0.0012207	5	0.0780833	0.00762939	1.93024	1.24756	-0.0012207	5	0.0781667	0.00793457	1.93329	1.25854	-0.0012207	5	0.07825	0.0088501	1.93634	1.26617	-0.000915527	5	0.0783333	0.00793457	1.93176	1.26984	-0.000610352	5	0.0784167	0.00823975	1.92871	1.27045	-0.000610352	5	0.0785	0.00793457	1.93482	1.27136	0	5	0.0785833	0.00762939	1.93482	1.27045	-0.000610352	5	0.0786667	0.00823975	1.93024	1.27197	0	5	0.07875	0.00793457	1.93634	1.27563	0	5	0.0788333	0.00732422	1.93176	1.28113	-0.0012207	5	0.0789167	0.00823975	1.93482	1.28815	0	5	0.079	0.00823975	1.93329	1.29761	-0.000915527	5	0.0790833	0.00823975	1.93939	1.30554	-0.000610352	5	0.0791667	0.00915527	1.93176	1.31531	0.000610352	5	0.07925	0.00732422	1.93329	1.32324	0	5	0.0793333	0.00915527	1.93482	1.32904	-0.000915527	5	0.0794167	0.00793457	1.93024	1.33514	-0.000610352	5	0.0795	0.00823975	1.93329	1.33789	-0.000610352	5	0.0795833	0.00854492	1.93329	1.33972	-0.000305176	5	0.0796667	0.00854492	1.93329	1.34033	-0.000305176	5	0.07975	0.00762939	1.93329	1.34155	-0.000915527	5	0.0798333	0.0088501	1.93329	1.34155	-0.000305176	5	0.0799167	0.00823975	1.93329	1.34186	-0.000610352	5	0.08	0.00793457	1.93482	1.34308	0	5	0.0800833	0.00823975	1.93482	1.34491	-0.0012207	5	0.0801667	0.00823975	1.93482	1.34644	0	5	0.08025	0.00823975	1.93329	1.34827	-0.000610352	5	0.0803333	0.0088501	1.93634	1.35101	-0.000305176	5	0.0804167	0.00823975	1.93176	1.35406	-0.000915527	5	0.0805	0.00793457	1.93329	1.35559	-0.000610352	5	0.0805833	0.00823975	1.93634	1.35834	-0.000915527	5	0.0806667	0.00823975	1.93176	1.35864	-0.000915527	5	0.08075	0.00793457	1.93329	1.36047	-0.000305176	5	0.0808333	0.0088501	1.93482	1.36169	-0.00183105	5	0.0809167	0.00823975	1.93176	1.36169	0.000305176	5	0.081	0.00793457	1.93482	1.36261	-0.0012207	5	0.0810833	0.0088501	1.93176	1.36353	0	5	0.0811667	0.00762939	1.93024	1.36383	-0.000610352	5	0.08125	0.00762939	1.93787	1.36566	-0.0012207	5	0.0813333	0.0088501	1.93329	1.36932	-0.000915527	5	0.0814167	0.00793457	1.93176	1.37787	-0.000915527	5	0.0815	0.00762939	1.93176	1.3916	-0.000305176	5	0.0815833	0.00762939	1.93176	1.40991	-0.000610352	5	0.0816667	0.00823975	1.93024	1.43158	-0.000610352	5	0.08175	0.00762939	1.93482	1.45386	-0.000610352	5	0.0818333	0.00854492	1.93482	1.47217	-0.000610352	5	0.0819167	0.00793457	1.93634	1.48926	0	5	0.082	0.00823975	1.93024	1.50177	-0.000305176	5	0.0820833	0.00793457	1.93329	1.51276	-0.000610352	5	0.0821667	0.00854492	1.93176	1.52496	-0.000610352	5	0.08225	0.00854492	1.93329	1.53625	-0.000610352	5	0.0823333	0.00823975	1.93329	1.55273	0	5	0.0824167	0.00793457	1.93939	1.57135	-0.0012207	5	0.0825	0.00823975	1.93482	1.59393	-0.000305176	5	0.0825833	0.00793457	1.93176	1.61926	-0.000305176	5	0.0826667	0.00823975	1.93329	1.64764	-0.000915527	5	0.08275	0.00854492	1.93176	1.67603	-0.000305176	5	0.0828333	0.00823975	1.93482	1.70624	-0.000915527	5	0.0829167	0.00823975	1.93482	1.73553	-0.000915527	5	0.083	0.00854492	1.93024	1.76239	0	5	0.0830833	0.00854492	1.93482	1.79138	-0.00183105	5	0.0831667	0.00793457	1.93482	1.81976	-0.000915527	5	0.08325	0.00793457	1.93482	1.84723	-0.000305176	5	0.0833333	0.00915527	1.93939	1.87256	-0.000305176	5	0.0834167	0.00762939	1.93176	1.89575	-0.000610352	5	0.0835	0.00823975	1.93939	1.91803	-0.000915527	5	0.0835833	0.00854492	1.93176	1.93726	0	5	0.0836667	0.00823975	1.93329	1.95221	-0.000610352	5	0.08375	0.00823975	1.93482	1.96533	-0.000305176	5	0.0838333	0.00854492	1.92871	1.97449	-0.0012207	5	0.0839167	0.00793457	1.93329	1.98242	-0.000610352	5	0.084	0.0088501	1.93329	1.98761	-0.000610352	5	0.0840833	0.00915527	1.93024	1.99066	0.000305176	5	0.0841667	0.00854492	1.93329	1.9931	-0.00152588	5	0.08425	0.0088501	1.93024	1.99402	0	5	0.0843333	0.00854492	1.93329	1.9928	-0.000305176	5	0.0844167	0.0088501	1.93176	1.99097	-0.0012207	5	0.0845	0.00854492	1.93176	1.98608	-0.000610352	5	0.0845833	0.00793457	1.93024	1.97968	-0.000915527	5	0.0846667	0.00823975	1.93329	1.97357	-0.00152588	5	0.08475	0.0088501	1.93329	1.96564	-0.000610352	5	0.0848333	0.00854492	1.93634	1.95801	-0.000305176	5	0.0849167	0.0088501	1.93329	1.95282	0.000305176	5	0.085	0.00823975	1.92871	1.95038	-0.000610352	5	0.0850833	0.00854492	1.93482	1.94916	-0.000305176	5	0.0851667	0.0088501	1.93024	1.95099	-0.000915527	5	0.08525	0.00823975	1.93482	1.95435	-0.000305176	5	0.0853333	0.00854492	1.93329	1.95923	-0.000915527	5	0.0854167	0.00823975	1.93176	1.96564	0.000610352	5	0.0855	0.00823975	1.93024	1.97021	-0.000915527	5	0.0855833	0.00854492	1.93634	1.97479	0	5	0.0856667	0.00854492	1.93329	1.97601	-0.00152588	5	0.08575	0.00793457	1.93329	1.97357	-0.000915527	5	0.0858333	0.00854492	1.93482	1.96777	-0.000305176	5	0.0859167	0.0088501	1.93329	1.95648	0	5	0.086	0.00793457	1.93329	1.94092	-0.000610352	5	0.0860833	0.00823975	1.93939	1.922	-0.000610352	5	0.0861667	0.00823975	1.93634	1.90155	-0.000915527	5	0.08625	0.00823975	1.93634	1.87805	-0.000915527	5	0.0863333	0.00854492	1.93939	1.85699	-0.000915527	5	0.0864167	0.00854492	1.93329	1.83624	-0.000915527	5	0.0865	0.00823975	1.93329	1.81824	-0.000610352	5	0.0865833	0.00793457	1.93787	1.80237	-0.0012207	5	0.0866667	0.00854492	1.93634	1.78802	-0.000305176	5	0.08675	0.00854492	1.93329	1.7749	0	5	0.0868333	0.00854492	1.92871	1.76453	-0.000610352	5	0.0869167	0.00854492	1.93329	1.75323	-0.000915527	5	0.087	0.00793457	1.93634	1.74347	-0.000305176	5	0.0870833	0.00793457	1.93176	1.73431	-0.000610352	5	0.0871667	0.00793457	1.93176	1.72363	-0.0012207	5	0.08725	0.00793457	1.93634	1.71509	0	5	0.0873333	0.00823975	1.93329	1.70654	-0.000610352	5	0.0874167	0.00823975	1.93634	1.69861	-0.000610352	5	0.0875	0.00823975	1.93482	1.69189	0.000305176	5	0.0875833	0.00793457	1.93024	1.6861	-0.000305176	5	0.0876667	0.00762939	1.93939	1.68304	-0.000915527	5	0.08775	0.00762939	1.93634	1.67999	-0.000915527	5	0.0878333	0.00823975	1.93482	1.67389	0	5	0.0879167	0.00793457	1.93787	1.66748	-0.00152588	5	0.088	0.00854492	1.93634	1.65833	0.000610352	5	0.0880833	0.00762939	1.93176	1.64856	-0.000610352	5	0.0881667	0.00823975	1.93787	1.63788	-0.0012207	5	0.08825	0.00762939	1.93176	1.62628	0	5	0.0883333	0.00823975	1.93329	1.61255	-0.0012207	5	0.0884167	0.00823975	1.93329	1.59698	-0.000915527	5	0.0885	0.00793457	1.93176	1.57867	-0.000610352	5	0.0885833	0.00823975	1.93329	1.56036	-0.00152588	5	0.0886667	0.00793457	1.93634	1.54053	-0.0012207	5	0.08875	0.00823975	1.93634	1.51733	0	5	0.0888333	0.00823975	1.93329	1.49475	-0.000915527	5	0.0889167	0.00793457	1.93329	1.47308	-0.000915527	5	0.089	0.00732422	1.92871	1.45172	-0.0012207	5	0.0890833	0.00823975	1.93482	1.43433	-0.000610352	5	0.0891667	0.00823975	1.93787	1.4212	-0.00152588	5	0.08925	0.00854492	1.93329	1.41174	0	5	0.0893333	0.0088501	1.93176	1.40594	0.000305176	5	0.0894167	0.00854492	1.93482	1.4035	-0.000915527	5	0.0895	0.00823975	1.93482	1.40259	-0.000915527	5	0.0895833	0.00823975	1.93634	1.4035	-0.000610352	5	0.0896667	0.00793457	1.93634	1.4032	-0.000610352	5	0.08975	0.00762939	1.93482	1.40015	-0.0012207	5	0.0898333	0.00823975	1.93329	1.39679	-0.000610352	5	0.0899167	0.00823975	1.93482	1.38977	-0.000610352	5	0.09	0.00823975	1.93482	1.38184	-0.000915527	5	0.0900833	0.00762939	1.93482	1.37299	-0.000610352	5	0.0901667	0.00793457	1.92719	1.36139	-0.000915527	5	0.09025	0.00823975	1.93634	1.34796	-0.000915527	5	0.0903333	0.00823975	1.93329	1.33423	-0.000915527	5	0.0904167	0.00823975	1.93482	1.32233	0	5	0.0905	0.00793457	1.93329	1.31378	-0.000305176	5	0.0905833	0.00762939	1.93329	1.30707	0.000305176	5	0.0906667	0.00762939	1.93176	1.30066	-0.000915527	5	0.09075	0.00762939	1.93787	1.29395	-0.000915527	5	0.0908333	0.00823975	1.93329	1.28571	-0.000610352	5	0.0909167	0.00762939	1.93329	1.27533	-0.000915527	5	0.091	0.00762939	1.93482	1.26617	-0.000305176	5	0.0910833	0.00793457	1.93482	1.25732	-0.000610352	5	0.0911667	0.00762939	1.93482	1.25092	-0.000915527	5	0.09125	0.00762939	1.93634	1.24573	-0.000305176	5	0.0913333	0.00793457	1.93329	1.23993	-0.00183105	5	0.0914167	0.00854492	1.93024	1.23535	-0.000305176	5	0.0915	0.00823975	1.93176	1.23016	-0.000305176	5	0.0915833	0.00793457	1.93634	1.22345	-0.000610352	5	0.0916667	0.00762939	1.93482	1.21765	-0.000610352	5	0.09175	0.00854492	1.93634	1.21124	-0.000305176	5	0.0918333	0.00823975	1.93482	1.20605	-0.00152588	5	0.0919167	0.00793457	1.93482	1.203	-0.000610352	5	0.092	0.00793457	1.93329	1.20361	-0.00152588	5	0.0920833	0.00823975	1.93787	1.2027	-0.000610352	5	0.0921667	0.00823975	1.93482	1.20361	-0.000915527	5	0.09225	0.00793457	1.93329	1.20361	0.000305176	5	0.0923333	0.00793457	1.93634	1.20514	-0.000915527	5	0.0924167	0.00823975	1.93634	1.20819	-0.00152588	5	0.0925	0.00823975	1.93787	1.21216	-0.000915527	5	0.0925833	0.00823975	1.93939	1.21826	-0.000915527	5	0.0926667	0.00793457	1.93329	1.22375	-0.000915527	5	0.09275	0.00915527	1.93176	1.23169	-0.000305176	5	0.0928333	0.00854492	1.93634	1.23779	-0.000610352	5	0.0929167	0.00823975	1.93482	1.2439	0.000305176	5	0.093	0.00793457	1.93176	1.24939	-0.000915527	5	0.0930833	0.00823975	1.93787	1.25519	0	5	0.0931667	0.00823975	1.93176	1.25916	-0.000305176	5	0.09325	0.00854492	1.93482	1.26465	0	5	0.0933333	0.00854492	1.93939	1.26831	-0.00152588	5	0.0934167	0.00823975	1.93024	1.27167	0.000610352	5	0.0935	0.00793457	1.93482	1.27472	0	5	0.0935833	0.00823975	1.93482	1.27655	-0.000915527	5	0.0936667	0.00793457	1.93024	1.27502	-0.000915527	5	0.09375	0.0088501	1.93024	1.2735	-0.000610352	5	0.0938333	0.00854492	1.93329	1.26801	0	5	0.0939167	0.00823975	1.93176	1.2616	-0.0012207	5	0.094	0.00854492	1.93482	1.25214	-0.000610352	5	0.0940833	0.00793457	1.93329	1.23718	-0.00152588	5	0.0941667	0.00793457	1.93634	1.2149	-0.000305176	5	0.09425	0.00793457	1.93482	1.18652	0	5	0.0943333	0.00793457	1.92871	1.15417	0	5	0.0944167	0.00854492	1.93482	1.12061	-0.000610352	5	0.0945	0.00762939	1.92871	1.08917	-0.00152588	5	0.0945833	0.00793457	1.93329	1.05835	0	5	0.0946667	0.00823975	1.93482	1.03577	-0.000915527	5	0.09475	0.00793457	1.93024	1.01624	0	5	0.0948333	0.00823975	1.93176	1.00281	-0.000610352	5	0.0949167	0.00823975	1.93787	0.991211	-0.000610352	5	0.095	0.00793457	1.93329	0.984192	-0.000305176	5	0.0950833	0.00762939	1.93329	0.975952	0	5	0.0951667	0.00823975	1.93939	0.967712	-0.000610352	5	0.09525	0.00854492	1.92871	0.959167	-0.000915527	5	0.0953333	0.00793457	1.93176	0.949707	-0.00152588	5	0.0954167	0.00823975	1.93329	0.933838	-0.0012207	5	0.0955	0.00793457	1.93329	0.912781	-0.000915527	5	0.0955833	0.00793457	1.93482	0.883484	-0.000915527	5	0.0956667	0.0088501	1.93482	0.848389	0	5	0.09575	0.00793457	1.93176	0.804138	-0.000610352	5	0.0958333	0.00793457	1.93482	0.755615	-0.00152588	5	0.0959167	0.00793457	1.93329	0.704346	-0.000610352	5	0.096	0.00823975	1.92871	0.652771	-0.000610352	5	0.0960833	0.0088501	1.92871	0.605774	-0.000305176	5	0.0961667	0.00823975	1.93329	0.565491	-0.000305176	5	0.09625	0.00854492	1.92719	0.53009	0.000305176	5	0.0963333	0.00823975	1.93176	0.504456	-0.00152588	5	0.0964167	0.00793457	1.93176	0.484924	0.000610352	5	0.0965	0.00854492	1.93176	0.471497	-0.000610352	5	0.0965833	0.00823975	1.93482	0.461426	-0.000915527	5	0.0966667	0.00823975	1.93482	0.455322	0	5	0.09675	0.00854492	1.93482	0.451355	-0.000305176	5	0.0968333	0.00854492	1.93482	0.449219	-0.000305176	5	0.0969167	0.0088501	1.93482	0.447388	0	5	0.097	0.00823975	1.93939	0.446777	-0.0012207	5	0.0970833	0.00823975	1.93329	0.446472	0	5	0.0971667	0.00823975	1.93329	0.444946	-0.0012207	5	0.09725	0.00823975	1.93176	0.444031	-0.000610352	5	0.0973333	0.00762939	1.93787	0.4422	0.000610352	5	0.0974167	0.00823975	1.93634	0.440674	-0.000915527	5	0.0975	0.0088501	1.93634	0.440674	-0.000610352	5	0.0975833	0.00793457	1.93482	0.439453	-0.000610352	5	0.0976667	0.00854492	1.93329	0.437317	0	5	0.09775	0.00762939	1.93634	0.436096	-0.0012207	5	0.0978333	0.00854492	1.94092	0.43396	0.000610352	5	0.0979167	0.00793457	1.93024	0.432129	-0.000610352	5	0.098	0.00854492	1.93787	0.429077	-0.000915527	5	0.0980833	0.00762939	1.93482	0.426025	0.000305176	5	0.0981667	0.00823975	1.93482	0.423279	-0.000915527	5	0.09825	0.00854492	1.93482	0.420227	-0.000915527	5	0.0983333	0.00793457	1.93329	0.417786	-0.000915527	5	0.0984167	0.00823975	1.93482	0.41748	-0.000915527	5	0.0985	0.00793457	1.93482	0.416565	-0.000915527	5	0.0985833	0.00762939	1.92871	0.415955	-0.00152588	5	0.0986667	0.00793457	1.93482	0.416565	-0.000610352	5	0.09875	0.00762939	1.93176	0.41748	-0.000915527	5	0.0988333	0.00854492	1.93024	0.417786	0	5	0.0989167	0.00823975	1.93329	0.41748	-0.00152588	5	0.099	0.00823975	1.93329	0.41626	0.000305176	5	0.0990833	0.00823975	1.93176	0.414124	-0.00152588	5	0.0991667	0.00854492	1.93482	0.409546	-0.000915527	5	0.09925	0.00854492	1.93482	0.355835	0	5	0.0993333	0.00854492	1.93329	0.186462	-0.000610352	5	0.0994167	0.00793457	1.92719	-0.129089	-0.00183105	5	0.0995	0.00732422	1.92871	-0.576172	0	5	0.0995833	0.00762939	1.93024	-1.11053	-0.00152588	5	0.0996667	0.00793457	1.92719	-1.6745	0.000305176	5	0.09975	0.00762939	1.93024	-2.21283	-0.000915527	5	0.0998333	0.00732422	1.92719	-2.68311	-0.000305176	5	0.0999167	0.00732422	1.92719	-3.05908	0	5	0.1	0.00732422	1.93176	-3.33008	-0.00152588	5	0.100083	0.00793457	1.93329	-3.49854	0	5	0.100167	0.00793457	1.93329	-3.5788	-0.000915527	5	0.10025	0.00762939	1.93329	-3.58521	-0.000915527	5	0.100333	0.00762939	1.93787	-3.54095	0	5	0.100417	0.00762939	1.93939	-3.46344	-0.000610352	5	0.1005	0.00701904	1.93482	-3.36914	0.000305176	5	0.100583	0.00762939	1.93482	-3.27271	-0.000610352	5	0.100667	0.00762939	1.94092	-3.18146	0	5	0.10075	0.00732422	1.93482	-3.10272	-0.000305176	5	0.100833	0.00701904	1.93024	-3.03802	-0.000610352	5	0.100917	0.00793457	1.93482	-2.98065	0	5	0.101	0.00793457	1.93329	-2.92236	-0.00152588	5	0.101083	0.00793457	1.93176	-2.85248	-0.000610352	5	0.101167	0.00793457	1.93787	-2.76428	-0.000305176	5	0.10125	0.00823975	1.93634	-2.65625	-0.00152588	5	0.101333	0.00793457	1.93482	-2.53143	-0.000610352	5	0.101417	0.00701904	1.93787	-2.39838	-0.000915527	5	0.1015	0.00823975	1.93939	-2.26227	-0.000610352	5	0.101583	0.00762939	1.93482	-2.1347	0	5	0.101667	0.00793457	1.93176	-2.0224	-0.000610352	5	0.10175	0.00732422	1.93634	-1.93115	-0.000610352	5	0.101833	0.00823975	1.93482	-1.8634	-0.000305176	5	0.101917	0.00732422	1.93787	-1.82007	-0.000915527	5	0.102	0.00762939	1.93634	-1.79657	-0.000915527	5	0.102083	0.00793457	1.93634	-1.79291	0	5	0.102167	0.00732422	1.93482	-1.80023	-0.000610352	5	0.10225	0.00823975	1.93939	-1.81824	-0.00183105	5	0.102333	0.00793457	1.93482	-1.84296	-0.000305176	5	0.102417	0.00793457	1.93329	-1.87378	-0.000610352	5	0.1025	0.00823975	1.93482	-1.9104	-0.000610352	5	0.102583	0.00762939	1.93024	-1.95709	-0.000610352	5	0.102667	0.00793457	1.93482	-2.02637	-0.000305176	5	0.10275	0.00823975	1.93482	-2.12463	-0.000915527	5	0.102833	0.00762939	1.93329	-2.25006	0	5	0.102917	0.00793457	1.93024	-2.39532	-0.000610352	5	0.103	0.00762939	1.93482	-2.54974	-0.000915527	5	0.103083	0.00762939	1.93329	-2.7063	-0.0012207	5	0.103167	0.00762939	1.93482	-2.86194	0	5	0.10325	0.00823975	1.93787	-3.01727	-0.000915527	5	0.103333	0.00762939	1.93482	-3.17139	-0.000610352	5	0.103417	0.00793457	1.93329	-3.31757	-0.000610352	5	0.1035	0.00732422	1.93482	-3.45062	-0.000305176	5	0.103583	0.00762939	1.93482	-3.56598	-0.000915527	5	0.103667	0.00854492	1.93787	-3.65967	0.000305176	5	0.10375	0.00762939	1.93176	-3.72955	-0.000610352	5	0.103833	0.00762939	1.93939	-3.77747	-0.000305176	5	0.103917	0.00762939	1.93482	-3.80371	0.000305176	5	0.104	0.00793457	1.93329	-3.81042	-0.0012207	5	0.104083	0.00732422	1.93482	-3.79608	-0.000610352	5	0.104167	0.00732422	1.93482	-3.76495	-0.000610352	5	0.10425	0.00793457	1.93482	-3.71979	-0.000305176	5	0.104333	0.00793457	1.93482	-3.6673	0	5	0.104417	0.00762939	1.93634	-3.61237	-0.0012207	5	0.1045	0.00701904	1.93329	-3.55682	-0.0012207	5	0.104583	0.00762939	1.93634	-3.50739	-0.000305176	5	0.104667	0.00823975	1.93634	-3.46191	-0.000915527	5	0.10475	0.00762939	1.93329	-3.4256	-0.000305176	5	0.104833	0.00701904	1.93329	-3.39722	-0.000610352	5	0.104917	0.00762939	1.93939	-3.37555	-0.000610352	5	0.105	0.00762939	1.93329	-3.35999	0	5	0.105083	0.00762939	1.93482	-3.34991	-0.000915527	5	0.105167	0.00823975	1.93634	-3.3432	-0.000915527	5	0.10525	0.00762939	1.93024	-3.34015	-0.000610352	5	0.105333	0.00762939	1.93329	-3.33832	-0.000610352	5	0.105417	0.00732422	1.93787	-3.33893	-0.000305176	5	0.1055	0.00823975	1.93176	-3.33954	-0.0012207	5	0.105583	0.00732422	1.93634	-3.33893	-0.000915527	5	0.105667	0.00762939	1.93482	-3.33893	-0.000915527	5	0.10575	0.00732422	1.93939	-3.33954	-0.000610352	5	0.105833	0.00823975	1.93634	-3.33801	0.000305176	5	0.105917	0.00762939	1.93482	-3.33649	-0.000305176	5	0.106	0.00823975	1.93939	-3.33496	-0.000915527	5	0.106083	0.00762939	1.93024	-3.33282	-0.000915527	5	0.106167	0.00793457	1.93482	-3.33221	-0.000305176	5	0.10625	0.00732422	1.93329	-3.33008	-0.000610352	5	0.106333	0.00793457	1.93482	-3.32886	-0.000915527	5	0.106417	0.00762939	1.93329	-3.32855	-0.0012207	5	0.1065	0.00762939	1.92719	-3.32703	0	5	0.106583	0.00732422	1.93329	-3.32916	-0.0012207	5	0.106667	0.00732422	1.93329	-3.33069	-0.000305176	5	0.10675	0.00854492	1.93176	-3.33771	0.000305176	5	0.106833	0.00823975	1.93787	-3.34839	-0.0012207	5	0.106917	0.00762939	1.93482	-3.36884	-0.0012207	5	0.107	0.00793457	1.93176	-3.39661	-0.000610352	5	0.107083	0.00793457	1.93634	-3.4317	-0.0012207	5	0.107167	0.00762939	1.93176	-3.47168	-0.0012207	5	0.10725	0.00762939	1.93329	-3.51166	-0.000610352	5	0.107333	0.00762939	1.93329	-3.55103	-0.0012207	5	0.107417	0.00823975	1.93482	-3.58612	-0.000305176	5	0.1075	0.00823975	1.93482	-3.61542	-0.000915527	5	0.107583	0.00823975	1.93329	-3.63922	0.000305176	5	0.107667	0.00793457	1.93634	-3.65631	-0.000610352	5	0.10775	0.00823975	1.93329	-3.66669	-0.000915527	5	0.107833	0.00793457	1.93329	-3.67493	-0.000305176	5	0.107917	0.00823975	1.93634	-3.67737	-0.000610352	5	0.108	0.00762939	1.93176	-3.67828	0	5	0.108083	0.00732422	1.93482	-3.67706	-0.000915527	5	0.108167	0.00823975	1.93787	-3.6731	-0.000305176	5	0.10825	0.00823975	1.93634	-3.66974	-0.000610352	5	0.108333	0.00823975	1.93176	-3.66638	-0.000610352	5	0.108417	0.00793457	1.93176	-3.66241	-0.000305176	5	0.1085	0.00793457	1.93482	-3.66028	-0.000915527	5	0.108583	0.00793457	1.93482	-3.65814	-0.00152588	5	0.108667	0.00762939	1.93787	-3.65936	-0.000610352	5	0.10875	0.00793457	1.93482	-3.6618	-0.000915527	5	0.108833	0.00793457	1.93482	-3.66425	-0.000915527	5	0.108917	0.00762939	1.93329	-3.66943	-0.000610352	5	0.109	0.00762939	1.93482	-3.67584	0	5	0.109083	0.00793457	1.93634	-3.68256	0	5	0.109167	0.00640869	1.93024	-3.69171	-0.000305176	5	0.10925	0.00732422	1.93634	-3.70056	-0.000610352	5	0.109333	0.00762939	1.93787	-3.71002	0.000610352	5	0.109417	0.00762939	1.93634	-3.71979	-0.000610352	5	0.1095	0.00762939	1.93634	-3.72742	-0.000915527	5	0.109583	0.00732422	1.93329	-3.73535	-0.00152588	5	0.109667	0.00762939	1.93329	-3.74207	0	5	0.10975	0.00762939	1.94092	-3.74695	-0.00183105	5	0.109833	0.00793457	1.93482	-3.75183	-0.000610352	5	0.109917	0.00762939	1.93176	-3.75641	-0.000610352	5	0.11	0.00701904	1.93634	-3.75946	-0.000610352	5	0.110083	0.00762939	1.93787	-3.7616	-0.000610352	5	0.110167	0.00762939	1.93329	-3.76282	0	5	0.11025	0.00732422	1.93329	-3.76495	-0.000610352	5	0.110333	0.00762939	1.93787	-3.76831	-0.000305176	5	0.110417	0.00701904	1.93787	-3.77106	0.000305176	5	0.1105	0.00793457	1.93329	-3.77716	-0.000915527	5	0.110583	0.00701904	1.93939	-3.7851	-0.0012207	5	0.110667	0.00732422	1.93482	-3.797	-0.000915527	5	0.11075	0.00793457	1.93329	-3.81226	-0.000305176	5	0.110833	0.00793457	1.93634	-3.83453	-0.000610352	5	0.110917	0.00762939	1.93024	-3.86627	-0.0012207	5	0.111	0.00793457	1.93329	-3.90594	0	5	0.111083	0.00732422	1.93482	-3.95477	-0.000610352	5	0.111167	0.00793457	1.93482	-4.00818	-0.000305176	5	0.11125	0.00732422	1.93634	-4.06189	-0.000305176	5	0.111333	0.00762939	1.93176	-4.11224	0.000305176	5	0.111417	0.00793457	1.93939	-4.15466	-0.0012207	5	0.1115	0.00732422	1.93329	-4.18976	0.000305176	5	0.111583	0.00762939	1.93329	-4.21448	-0.000915527	5	0.111667	0.00762939	1.93787	-4.23126	-0.000610352	5	0.11175	0.00671387	1.93329	-4.24011	-0.000305176	5	0.111833	0.00732422	1.93482	-4.24194	-0.00152588	5	0.111917	0.00762939	1.93329	-4.24103	-0.000915527	5	0.112	0.00823975	1.93024	-4.23676	-0.0012207	5	0.112083	0.00762939	1.93634	-4.23065	0	5	0.112167	0.00732422	1.93176	-4.22607	-0.000915527	5	0.11225	0.00762939	1.94092	-4.2215	-0.000610352	5	0.112333	0.00762939	1.93634	-4.22241	0.000305176	5	0.112417	0.00671387	1.93329	-4.22668	-0.000305176	5	0.1125	0.00793457	1.93634	-4.23645	-0.000915527	5	0.112583	0.00732422	1.93329	-4.24866	-0.000305176	5	0.112667	0.00762939	1.93024	-4.26056	0	5	0.11275	0.00762939	1.93329	-4.26727	0	5	0.112833	0.00732422	1.93482	-4.26666	0	5	0.112917	0.00793457	1.93787	-4.25873	-0.000610352	5	0.113	0.00701904	1.93634	-4.24286	-0.000915527	5	0.113083	0.00762939	1.93482	-4.22211	-0.000305176	5	0.113167	0.00671387	1.93634	-4.1983	-0.000610352	5	0.11325	0.00762939	1.93634	-4.17267	0	5	0.113333	0.00793457	1.93939	-4.14734	-0.000915527	5	0.113417	0.00762939	1.93024	-4.12292	-0.000305176	5	0.1135	0.00762939	1.93482	-4.09943	-0.000915527	5	0.113583	0.00762939	1.93787	-4.07928	-0.0012207	5	0.113667	0.00762939	1.93482	-4.06158	-0.000305176	5	0.11375	0.00701904	1.93176	-4.04694	0	5	0.113833	0.00762939	1.93482	-4.03412	-0.0012207	5	0.113917	0.00732422	1.93329	-4.02435	-0.000610352	5	0.114	0.00793457	1.93482	-4.0152	-0.000610352	5	0.114083	0.00823975	1.93939	-4.01001	-0.000915527	5	0.114167	0.00762939	1.93176	-4.00818	-0.000915527	5	0.11425	0.00762939	1.93482	-4.00665	-0.000305176	5	0.114333	0.00762939	1.93482	-4.00818	-0.000305176	5	0.114417	0.00793457	1.93787	-4.01093	-0.0012207	5	0.1145	0.00762939	1.93482	-4.01886	0.000915527	5	0.114583	0.00732422	1.93634	-4.0329	-0.0012207	5	0.114667	0.00793457	1.93939	-4.05762	-0.000610352	5	0.11475	0.00762939	1.93024	-4.0918	0	5	0.114833	0.00762939	1.93787	-4.13147	-0.000610352	5	0.114917	0.00823975	1.93634	-4.16962	-0.000610352	5	0.115	0.00762939	1.93329	-4.20227	-0.0012207	5	0.115083	0.00793457	1.93482	-4.22485	-0.000610352	5	0.115167	0.00793457	1.93787	-4.23767	-0.000610352	5	0.11525	0.00701904	1.93024	-4.24164	-0.0012207	5	0.115333	0.00762939	1.93482	-4.23615	-0.000610352	5	0.115417	0.00762939	1.93787	-4.22485	-0.000610352	5	0.1155	0.00823975	1.93787	-4.20959	-0.000305176	5	0.115583	0.00793457	1.93329	-4.19312	0	5	0.115667	0.00762939	1.93482	-4.17542	-0.000610352	5	0.11575	0.00762939	1.93939	-4.15833	-0.000610352	5	0.115833	0.00793457	1.93787	-4.1452	0.000305176	5	0.115917	0.00762939	1.93329	-4.13208	-0.000610352	5	0.116	0.00762939	1.93482	-4.12079	0	5	0.116083	0.00640869	1.93482	-4.11346	0.000610352	5	0.116167	0.00762939	1.93329	-4.10614	-0.00152588	5	0.11625	0.00701904	1.93634	-4.10126	-0.000305176	5	0.116333	0.00762939	1.93939	-4.09882	-0.000610352	5	0.116417	0.00793457	1.93634	-4.09546	-0.00213623	5	0.1165	0.00762939	1.93329	-4.09485	-0.000610352	5	0.116583	0.00732422	1.93634	-4.09332	-0.000305176	5	0.116667	0.00762939	1.93329	-4.0918	0.000610352	5	0.11675	0.00762939	1.93482	-4.09119	-0.000305176	5	0.116833	0.00823975	1.93634	-4.08905	-0.000915527	5	0.116917	0.00701904	1.93482	-4.08783	0.000305176	5	0.117	0.00762939	1.93482	-4.086	-0.000610352	5	0.117083	0.00701904	1.93329	-4.08356	-0.000610352	5	0.117167	0.00762939	1.93482	-4.08051	-0.000610352	5	0.11725	0.00793457	1.93939	-4.07867	-0.000610352	5	0.117333	0.00701904	1.92871	-4.07684	-0.000610352	5	0.117417	0.00732422	1.93787	-4.0744	-0.000915527	5	0.1175	0.00762939	1.93329	-4.07288	-0.000305176	5	0.117583	0.00701904	1.93482	-4.07166	0	5	0.117667	0.00732422	1.93787	-4.07166	-0.000305176	5	0.11775	0.00732422	1.93482	-4.07288	-0.000610352	5	0.117833	0.00762939	1.93482	-4.07379	-0.000610352	5	0.117917	0.00793457	1.93482	-4.07532	-0.000610352	5	0.118	0.00762939	1.93176	-4.07837	-0.000305176	5	0.118083	0.00793457	1.93482	-4.08112	-0.000610352	5	0.118167	0.00701904	1.93329	-4.08234	-0.00152588	5	0.11825	0.00732422	1.93482	-4.08539	-0.000915527	5	0.118333	0.00823975	1.93482	-4.08783	0	5	0.118417	0.00823975	1.93482	-4.08936	-0.000610352	5	0.1185	0.00762939	1.93329	-4.09088	-0.000915527	5	0.118583	0.00793457	1.93482	-4.09271	0.000305176	5	0.118667	0.00793457	1.92871	-4.09485	-0.000915527	5	0.11875	0.00732422	1.92719	-4.0976	-0.0012207	5	0.118833	0.00762939	1.93329	-4.10065	-0.00152588	5	0.118917	0.00762939	1.93176	-4.10431	-0.000915527	5	0.119	0.00762939	1.93329	-4.11011	0.000305176	5	0.119083	0.00732422	1.93176	-4.11804	-0.000915527	5	0.119167	0.00732422	1.93329	-4.12476	-0.000915527	5	0.11925	0.00762939	1.93634	-4.13239	-0.000610352	5	0.119333	0.00762939	1.93634	-4.13849	-0.000915527	5	0.119417	0.00793457	1.93634	-4.14246	0	5	0.1195	0.00732422	1.93024	-4.1449	-0.000610352	5	0.119583	0.00762939	1.94092	-4.14337	-0.000305176	5	0.119667	0.00793457	1.93482	-4.14124	0	5	0.11975	0.00793457	1.93482	-4.13818	-0.000915527	5	0.119833	0.00762939	1.93482	-4.13177	0.000305176	5	0.119917	0.00732422	1.93176	-4.12781	-0.000305176	5	0.12	0.00762939	1.93634	-4.12323	-0.00152588	5	0.120083	0.00762939	1.93482	-4.11804	-0.000610352	5	0.120167	0.00732422	1.93329	-4.1153	-0.000610352	5	0.12025	0.00793457	1.93329	-4.11133	-0.000915527	5	0.120333	0.00732422	1.93634	-4.10889	0.000305176	5	0.120417	0.00793457	1.93634	-4.10675	-0.000305176	5	0.1205	0.00671387	1.93482	-4.10492	-0.00152588	5	0.120583	0.00762939	1.93482	-4.1037	-0.000610352	5	0.120667	0.00732422	1.93634	-4.10309	-0.000915527	5	0.12075	0.00762939	1.93176	-4.1037	-0.000305176	5	0.120833	0.00762939	1.93329	-4.10553	-0.000305176	5	0.120917	0.00793457	1.93329	-4.10919	-0.000610352	5	0.121	0.00762939	1.93634	-4.11163	0.000305176	5	0.121083	0.00762939	1.93787	-4.11499	0.000305176	5	0.121167	0.00701904	1.93176	-4.11896	-0.000915527	5	0.12125	0.00762939	1.94092	-4.12354	0	5	0.121333	0.00701904	1.93634	-4.1275	-0.000610352	5	0.121417	0.00762939	1.93329	-4.13666	0	5	0.1215	0.00701904	1.93634	-4.14551	-0.0012207	5	0.121583	0.00701904	1.93024	-4.15985	-0.000915527	5	0.121667	0.00762939	1.93329	-4.17511	-0.000915527	5	0.12175	0.00732422	1.93329	-4.1922	0.000305176	5	0.121833	0.00762939	1.93482	-4.20868	-0.00152588	5	0.121917	0.00762939	1.93634	-4.22516	0	5	0.122	0.00732422	1.93482	-4.2395	-0.000915527	5	0.122083	0.00854492	1.93939	-4.25293	0	5	0.122167	0.00793457	1.93482	-4.26361	0	5	0.12225	0.00762939	1.93176	-4.27246	-0.000610352	5	0.122333	0.00793457	1.93787	-4.28101	-0.000610352	5	0.122417	0.00823975	1.93024	-4.2926	0.000305176	5	0.1225	0.00823975	1.93329	-4.31152	-0.000915527	5	0.122583	0.00762939	1.93024	-4.33807	0	5	0.122667	0.00823975	1.93634	-4.36829	-0.000305176	5	0.12275	0.00732422	1.93482	-4.39819	-0.000915527	5	0.122833	0.00762939	1.92871	-4.42535	-0.000610352	5	0.122917	0.00762939	1.93482	-4.44489	0	5	0.123	0.00762939	1.93482	-4.45557	-0.000305176	5	0.123083	0.00762939	1.93329	-4.45892	0	5	0.123167	0.00732422	1.93787	-4.45251	-0.000610352	5	0.12325	0.00793457	1.93176	-4.43787	-0.00152588	5	0.123333	0.00701904	1.93176	-4.41589	-0.000610352	5	0.123417	0.00762939	1.93939	-4.38934	-0.000915527	5	0.1235	0.00701904	1.93482	-4.36066	-0.0012207	5	0.123583	0.00762939	1.93176	-4.33136	-0.000610352	5	0.123667	0.00793457	1.93482	-4.3045	0	5	0.12375	0.00762939	1.94245	-4.2804	-0.000915527	5	0.123833	0.00793457	1.93482	-4.26056	-0.000915527	5	0.123917	0.00762939	1.93634	-4.24133	-0.000610352	5	0.124	0.00793457	1.93329	-4.22638	-0.0012207	5	0.124083	0.00701904	1.93482	-4.21387	-0.000915527	5	0.124167	0.00732422	1.93482	-4.20258	-0.000915527	5	0.12425	0.00701904	1.93176	-4.19098	-0.000610352	5	0.124333	0.00762939	1.93634	-4.17816	0	5	0.124417	0.00732422	1.93787	-4.16504	0	5	0.1245	0.00762939	1.93176	-4.14825	-0.000305176	5	0.124583	0.00762939	1.93787	-4.13055	-0.000305176	5	0.124667	0.00732422	1.93176	-4.10828	-0.0012207	5	0.12475	0.00732422	1.93634	-4.08417	-0.000610352	5	0.124833	0.00762939	1.93939	-4.05792	-0.000610352	5	0.124917	0.00762939	1.93482	-4.03198	0.000305176	5	0.125	0.00732422	1.92871	-4.00665	-0.000915527	5	0.125083	0.00823975	1.93634	-3.98438	-0.0012207	5	0.125167	0.00701904	1.93329	-3.96576	-0.000305176	5	0.12525	0.00762939	1.93024	-3.95325	-0.000610352	5	0.125333	0.00793457	1.93787	-3.94287	-0.000305176	5	0.125417	0.00762939	1.93634	-3.93738	-0.000915527	5	0.1255	0.00823975	1.93482	-3.93433	-0.00152588	5	0.125583	0.00823975	1.93482	-3.93188	-0.0012207	5	0.125667	0.00762939	1.93482	-3.92975	-0.00152588	5	0.12575	0.00732422	1.93787	-3.92517	-0.000610352	5	0.125833	0.00793457	1.93634	-3.9212	0	5	0.125917	0.00762939	1.93634	-3.91418	-0.000915527	5	0.126	0.00732422	1.93329	-3.90656	-0.000610352	5	0.126083	0.00732422	1.93329	-3.89618	-0.000915527	5	0.126167	0.00793457	1.94092	-3.8855	-0.000915527	5	0.12625	0.00762939	1.93329	-3.87146	0.000305176	5	0.126333	0.00762939	1.93176	-3.85834	0	5	0.126417	0.00732422	1.93482	-3.84369	-0.000305176	5	0.1265	0.00793457	1.93787	-3.82965	-0.000610352	5	0.126583	0.00732422	1.93634	-3.81958	-0.000305176	5	0.126667	0.00732422	1.93329	-3.81134	0	5	0.12675	0.00823975	1.93634	-3.80646	-0.000305176	5	0.126833	0.00732422	1.93482	-3.80524	-0.000915527	5	0.126917	0.00823975	1.93634	-3.80798	0.000305176	5	0.127	0.00793457	1.93482	-3.81104	0	5	0.127083	0.00732422	1.93024	-3.8147	-0.000915527	5	0.127167	0.00732422	1.93024	-3.81531	0	5	0.12725	0.00762939	1.93787	-3.80951	-0.0012207	5	0.127333	0.00762939	1.93176	-3.80127	0.000305176	5	0.127417	0.00732422	1.93329	-3.78571	-0.000915527	5	0.1275	0.00732422	1.93329	-3.76312	-0.000915527	5	0.127583	0.00793457	1.93482	-3.7384	-0.000305176	5	0.127667	0.00762939	1.93634	-3.71094	-0.000915527	5	0.12775	0.00701904	1.93482	-3.68378	-0.000610352	5	0.127833	0.00823975	1.93482	-3.65997	-0.000305176	5	0.127917	0.00701904	1.93329	-3.63678	-0.0012207	5	0.128	0.00823975	1.93329	-3.61877	0	5	0.128083	0.00793457	1.93482	-3.60321	-0.000610352	5	0.128167	0.00762939	1.93329	-3.59009	-0.000305176	5	0.12825	0.00701904	1.93482	-3.57666	-0.0012207	5	0.128333	0.00762939	1.93634	-3.56354	0	5	0.128417	0.00762939	1.93329	-3.5495	-0.000915527	5	0.1285	0.00762939	1.93482	-3.53333	-0.000610352	5	0.128583	0.00732422	1.93482	-3.51532	-0.000915527	5	0.128667	0.00732422	1.93329	-3.49701	-0.000610352	5	0.12875	0.00732422	1.93482	-3.47809	0	5	0.128833	0.00823975	1.93024	-3.45856	0	5	0.128917	0.00762939	1.93634	-3.43933	-0.000915527	5	0.129	0.00793457	1.93176	-3.42194	-0.000305176	5	0.129083	0.00762939	1.93024	-3.40637	-0.0012207	5	0.129167	0.00732422	1.92871	-3.39081	0	5	0.12925	0.00732422	1.93482	-3.38165	-0.000915527	5	0.129333	0.00762939	1.93482	-3.37097	-0.000915527	5	0.129417	0.00762939	1.93482	-3.36426	-0.000610352	5	0.1295	0.00793457	1.93329	-3.35938	-0.00152588	5	0.129583	0.00732422	1.93329	-3.35388	-0.000610352	5	0.129667	0.00671387	1.93634	-3.35052	-0.000305176	5	0.12975	0.00793457	1.93329	-3.34595	-0.000610352	5	0.129833	0.00762939	1.93482	-3.34229	0	5	0.129917	0.00732422	1.92871	-3.33771	-0.000915527	5	0.13	0.00793457	1.93787	-3.33313	-0.000915527	5	0.130083	0.00732422	1.93482	-3.32947	0	5	0.130167	0.00762939	1.93634	-3.32825	-0.000915527	5	0.13025	0.00762939	1.93329	-3.32611	0	5	0.130333	0.00701904	1.93634	-3.32489	-0.000305176	5	0.130417	0.00793457	1.93329	-3.32367	-0.000305176	5	0.1305	0.00762939	1.93329	-3.32275	-0.000610352	5	0.130583	0.00793457	1.93634	-3.32306	-0.000305176	5	0.130667	0.00732422	1.93634	-3.32123	-0.000915527	5	0.13075	0.00732422	1.93176	-3.32001	-0.000610352	5	0.130833	0.00793457	1.93787	-3.31818	-0.000915527	5	0.130917	0.00762939	1.93176	-3.31482	-0.000915527	5	0.131	0.00793457	1.93024	-3.31024	-0.0012207	5	0.131083	0.00732422	1.93482	-3.30414	-0.000305176	5	0.131167	0.00762939	1.93329	-3.29987	-0.0012207	5	0.13125	0.00793457	1.93176	-3.29376	0	5	0.131333	0.00793457	1.93482	-3.28766	-0.00183105	5	0.131417	0.00732422	1.93787	-3.28308	-0.000610352	5	0.1315	0.00793457	1.93024	-3.2785	0	5	0.131583	0.00701904	1.92871	-3.27301	-0.000610352	5	0.131667	0.00762939	1.93787	-3.26904	-0.000610352	5	0.13175	0.00762939	1.93329	-3.26447	0.000915527	5	0.131833	0.00762939	1.93482	-3.25989	-0.000305176	5	0.131917	0.00793457	1.93634	-3.25592	-0.000305176	5	0.132	0.00762939	1.93329	-3.25226	-0.000610352	5	0.132083	0.00793457	1.93329	-3.24829	-0.000610352	5	0.132167	0.00793457	1.93482	-3.2428	-0.0012207	5	0.13225	0.00793457	1.93329	-3.23822	-0.000610352	5	0.132333	0.00793457	1.93176	-3.23151	-0.000305176	5	0.132417	0.00793457	1.93329	-3.22479	-0.000610352	5	0.1325	0.00793457	1.93329	-3.21777	0	5	0.132583	0.00762939	1.93787	-3.21106	-0.000915527	5	0.132667	0.00793457	1.93482	-3.20496	-0.000610352	5	0.13275	0.00762939	1.93482	-3.19977	-0.0012207	5	0.132833	0.00732422	1.93787	-3.19427	-0.000915527	5	0.132917	0.00793457	1.93482	-3.19061	0	5	0.133	0.00762939	1.93787	-3.18634	-0.000915527	5	0.133083	0.00732422	1.93176	-3.1839	-0.00152588	5	0.133167	0.00762939	1.93176	-3.17871	-0.000305176	5	0.13325	0.00762939	1.93787	-3.17352	-0.0012207	5	0.133333	0.00762939	1.93329	-3.16681	-0.000305176	5	0.133417	0.00732422	1.93024	-3.15948	0	5	0.1335	0.00762939	1.93329	-3.14941	0.000305176	5	0.133583	0.00762939	1.93329	-3.14209	-0.000610352	5	0.133667	0.00762939	1.93634	-3.1366	-0.000915527	5	0.13375	0.00823975	1.93482	-3.13293	-0.000610352	5	0.133833	0.00762939	1.93329	-3.12683	-0.0012207	5	0.133917	0.00762939	1.93329	-3.11432	-0.000915527	5	0.134	0.00823975	1.93482	-3.09357	-0.000610352	5	0.134083	0.00793457	1.93482	-3.06702	0	5	0.134167	0.00732422	1.93634	-3.03467	0	5	0.13425	0.00732422	1.93329	-3.00049	-0.000915527	5	0.134333	0.00854492	1.93634	-2.96478	-0.000610352	5	0.134417	0.00762939	1.93329	-2.93213	0.000305176	5	0.1345	0.00762939	1.93482	-2.90344	-0.000610352	5	0.134583	0.00762939	1.93482	-2.87964	-0.000305176	5	0.134667	0.00701904	1.93329	-2.86194	-0.000915527	5	0.13475	0.00701904	1.93482	-2.84973	-0.00152588	5	0.134833	0.00732422	1.93482	-2.84119	0	5	0.134917	0.00793457	1.93329	-2.83875	-0.000915527	5	0.135	0.00701904	1.93329	-2.83691	0	5	0.135083	0.00732422	1.93482	-2.83661	-0.000610352	5	0.135167	0.00732422	1.93787	-2.83447	-0.000915527	5	0.13525	0.00793457	1.93787	-2.8299	0.000610352	5	0.135333	0.00762939	1.93329	-2.81616	-0.000305176	5	0.135417	0.00793457	1.94092	-2.79297	-0.000915527	5	0.1355	0.00762939	1.93024	-2.75635	-0.00152588	5	0.135583	0.00762939	1.93329	-2.71027	-0.000305176	5	0.135667	0.00793457	1.93482	-2.65533	-0.000915527	5	0.13575	0.00823975	1.93634	-2.59583	0.000610352	5	0.135833	0.00732422	1.93329	-2.53693	-0.000610352	5	0.135917	0.00793457	1.93634	-2.47955	-0.000610352	5	0.136	0.00762939	1.93329	-2.42615	0	5	0.136083	0.00732422	1.93329	-2.37823	0	5	0.136167	0.00762939	1.93482	-2.32513	-0.000610352	5	0.13625	0.00732422	1.93634	-2.26227	0	5	0.136333	0.00793457	1.93634	-2.18811	-0.00183105	5	0.136417	0.00823975	1.93329	-2.10175	0.000305176	5	0.1365	0.00793457	1.93329	-2.00775	-0.000915527	5	0.136583	0.00762939	1.93329	-1.90857	-0.000915527	5	0.136667	0.00762939	1.93482	-1.81244	-0.000305176	5	0.13675	0.00762939	1.93939	-1.71844	-0.000915527	5	0.136833	0.00793457	1.93024	-1.63239	0	5	0.136917	0.00762939	1.93329	-1.55304	-0.000915527	5	0.137	0.0088501	1.93787	-1.47827	-0.000915527	5	0.137083	0.00762939	1.93634	-1.40594	-0.000305176	5	0.137167	0.00732422	1.93329	-1.32904	-0.000610352	5	0.13725	0.00762939	1.93329	-1.23901	-0.0012207	5	0.137333	0.00854492	1.93634	-1.13892	-0.000915527	5	0.137417	0.00793457	1.93634	-1.02875	-0.0012207	5	0.1375	0.00793457	1.93176	-0.914612	-0.000305176	5	0.137583	0.00762939	1.93329	-0.804749	-0.0012207	5	0.137667	0.00793457	1.93482	-0.703125	-0.000305176	5	0.13775	0.00793457	1.93634	-0.61676	-0.000305176	5	0.137833	0.00762939	1.93329	-0.548096	-0.00152588	5	0.137917	0.00823975	1.93634	-0.495911	0.000610352	5	0.138	0.00762939	1.93329	-0.459595	-0.000305176	5	0.138083	0.00793457	1.94092	-0.435486	0	5	0.138167	0.00762939	1.93634	-0.422974	-0.000610352	5	0.13825	0.00762939	1.93329	-0.420227	-0.000305176	5	0.138333	0.00823975	1.93634	-0.420532	-0.000915527	5	0.138417	0.00732422	1.93329	-0.425415	-0.000915527	5	0.1385	0.00732422	1.93329	-0.431519	-0.000610352	5	0.138583	0.00823975	1.93787	-0.436096	-0.00152588	5	0.138667	0.00762939	1.93329	-0.439453	0.000610352	5	0.13875	0.00793457	1.93024	-0.441895	-0.000915527	5	0.138833	0.00762939	1.93176	-0.441589	0.000305176	5	0.138917	0.00762939	1.93024	-0.440063	-0.00152588	5	0.139	0.00762939	1.93024	-0.437012	-0.000305176	5	0.139083	0.00823975	1.93787	-0.432129	-0.00152588	5	0.139167	0.00762939	1.93482	-0.427551	-0.000305176	5	0.13925	0.00793457	1.93329	-0.421448	-0.000305176	5	0.139333	0.00762939	1.93482	-0.41626	-0.000610352	5	0.139417	0.00762939	1.93787	-0.411377	0	5	0.1395	0.00793457	1.93482	-0.406494	0	5	0.139583	0.00762939	1.93024	-0.401917	-0.000610352	5	0.139667	0.00762939	1.93787	-0.396118	-0.000915527	5	0.13975	0.00823975	1.93482	-0.390625	-0.000610352	5	0.139833	0.0088501	1.93634	-0.386047	0	5	0.139917	0.00823975	1.93482	-0.379944	-0.000610352	5	0.14	0.00823975	1.93176	-0.375061	-0.000915527	5	0.140083	0.00793457	1.92871	-0.368042	0	5	0.140167	0.00823975	1.93787	-0.362854	-0.00152588	5	0.14025	0.00793457	1.93329	-0.357056	0.000305176	5	0.140333	0.0088501	1.93176	-0.352478	-0.000305176	5	0.140417	0.00823975	1.93176	-0.347595	0	5	0.1405	0.00854492	1.93024	-0.344543	-0.000915527	5	0.140583	0.00854492	1.93176	-0.33905	-0.000305176	5	0.140667	0.00823975	1.93634	-0.335388	-0.0012207	5	0.14075	0.00762939	1.93329	-0.332642	-0.00152588	5	0.140833	0.00823975	1.93482	-0.328979	-0.000610352	5	0.140917	0.00854492	1.93176	-0.325928	-0.0012207	5	0.141	0.00854492	1.93482	-0.32074	-0.000915527	5	0.141083	0.00854492	1.93329	-0.317383	0	5	0.141167	0.00762939	1.92871	-0.3125	-0.000305176	5	0.14125	0.00823975	1.93787	-0.307312	-0.000610352	5	0.141333	0.00762939	1.93024	-0.300903	-0.000915527	5	0.141417	0.00793457	1.93634	-0.295105	0	5	0.1415	0.00793457	1.93329	-0.288086	-0.0012207	5	0.141583	0.00854492	1.93024	-0.281067	-0.000305176	5	0.141667	0.00823975	1.93329	-0.270691	-0.000610352	5	0.14175	0.00915527	1.93939	-0.255127	-0.00183105	5	0.141833	0.00762939	1.93176	-0.221252	0.000610352	5	0.141917	0.00854492	1.93482	-0.15564	-0.0012207	5	0.142	0.00762939	1.93787	-0.0531006	0	5	0.142083	0.00823975	1.93176	0.0817871	-0.000610352	5	0.142167	0.00762939	1.93176	0.240173	0	5	0.14225	0.00732422	1.93787	0.409851	-0.0012207	5	0.142333	0.00823975	1.93482	0.577087	0.000610352	5	0.142417	0.00793457	1.93329	0.729675	-0.000610352	5	0.1425	0.00823975	1.93482	0.861511	-0.0012207	5	0.142583	0.00793457	1.92871	0.966187	0	5	0.142667	0.00793457	1.93482	1.04584	0.000305176	5	0.14275	0.00854492	1.93634	1.0965	-0.000610352	5	0.142833	0.00823975	1.93329	1.12335	-0.000915527	5	0.142917	0.00793457	1.93329	1.13281	-0.000305176	5	0.143	0.00762939	1.93329	1.12762	-0.000610352	5	0.143083	0.00793457	1.93482	1.11847	-0.000610352	5	0.143167	0.00762939	1.93939	1.11023	-0.000915527	5	0.14325	0.00823975	1.93329	1.10596	0	5	0.143333	0.0088501	1.93329	1.10962	-0.000610352	5	0.143417	0.00823975	1.93176	1.12152	-0.000915527	5	0.1435	0.00762939	1.93329	1.13708	-0.000915527	5	0.143583	0.00854492	1.93634	1.15234	-0.000610352	5	0.143667	0.00823975	1.93482	1.1615	0.000610352	5	0.14375	0.00823975	1.93176	1.16302	-0.000305176	5	0.143833	0.0088501	1.93482	1.15509	0.000610352	5	0.143917	0.00732422	1.93634	1.14075	-0.000915527	5	0.144	0.00854492	1.93024	1.11938	0	5	0.144083	0.00823975	1.93634	1.09772	-0.000915527	5	0.144167	0.00793457	1.93329	1.07635	-0.00183105	5	0.14425	0.00732422	1.93176	1.0611	-0.000305176	5	0.144333	0.00854492	1.93482	1.05499	-0.000915527	5	0.144417	0.00854492	1.93482	1.05988	0	5	0.1445	0.00793457	1.93482	1.07635	-0.000915527	5	0.144583	0.00762939	1.93482	1.10199	0	5	0.144667	0.00823975	1.93176	1.13281	-0.0012207	5	0.14475	0.00823975	1.93329	1.16821	-0.00152588	5	0.144833	0.00854492	1.93329	1.20331	0	5	0.144917	0.00823975	1.92871	1.23566	-0.0012207	5	0.145	0.00854492	1.93024	1.26495	-0.000305176	5	0.145083	0.00762939	1.93634	1.28876	-0.000610352	5	0.145167	0.00793457	1.93482	1.30646	-0.000610352	5	0.14525	0.00823975	1.93634	1.31989	-0.00152588	5	0.145333	0.00854492	1.93329	1.32843	-0.000305176	5	0.145417	0.00793457	1.93024	1.33026	-0.000610352	5	0.1455	0.00854492	1.93329	1.33209	-0.000305176	5	0.145583	0.0088501	1.92871	1.33087	-0.000915527	5	0.145667	0.00823975	1.93176	1.32751	0	5	0.14575	0.00762939	1.93482	1.32446	-0.00183105	5	0.145833	0.00823975	1.93024	1.3208	-0.000610352	5	0.145917	0.00823975	1.93482	1.31744	-0.000915527	5	0.146	0.00854492	1.93024	1.31683	0.000305176	5	0.146083	0.00823975	1.93482	1.31744	-0.000915527	5	0.146167	0.00823975	1.93634	1.31927	-0.000305176	5	0.14625	0.00823975	1.93482	1.32141	0.000610352	5	0.146333	0.00854492	1.93176	1.32416	0.000305176	5	0.146417	0.0088501	1.93939	1.3269	-0.000915527	5	0.1465	0.00823975	1.93024	1.32904	-0.000305176	5	0.146583	0.00793457	1.93329	1.32904	-0.000305176	5	0.146667	0.00854492	1.93329	1.33057	-0.000305176	5	0.14675	0.00854492	1.93176	1.32996	-0.00152588	5	0.146833	0.00793457	1.93176	1.33026	0	5	0.146917	0.00854492	1.93634	1.32996	-0.0012207	5	0.147	0.00823975	1.93024	1.33118	0	5	0.147083	0.00915527	1.93329	1.33301	-0.000915527	5	0.147167	0.00854492	1.93482	1.33514	-0.000305176	5	0.14725	0.00854492	1.93634	1.3382	-0.000915527	5	0.147333	0.00823975	1.93787	1.34094	0	5	0.147417	0.00823975	1.93024	1.34247	-0.000915527	5	0.1475	0.00915527	1.93482	1.3446	-0.000915527	5	0.147583	0.0088501	1.93329	1.34644	-0.000305176	5	0.147667	0.00854492	1.93176	1.34705	-0.000305176	5	0.14775	0.0088501	1.93939	1.34827	-0.000305176	5	0.147833	0.00823975	1.93024	1.34705	-0.000915527	5	0.147917	0.00854492	1.93024	1.34766	0	5	0.148	0.00854492	1.93482	1.34674	-0.000915527	5	0.148083	0.00793457	1.93329	1.34644	0.000305176	5	0.148167	0.00854492	1.93329	1.34521	-0.000610352	5	0.14825	0.00793457	1.93482	1.34674	-0.000305176	5	0.148333	0.00823975	1.93482	1.34918	-0.0012207	5	0.148417	0.0088501	1.93787	1.35681	-0.000305176	5	0.1485	0.00854492	1.93787	1.36902	0	5	0.148583	0.00854492	1.93024	1.38428	0	5	0.148667	0.00823975	1.93329	1.40167	-0.000610352	5	0.14875	0.0088501	1.93329	1.41998	0	5	0.148833	0.00823975	1.92871	1.43799	-0.0012207	5	0.148917	0.00823975	1.93482	1.45569	-0.000305176	5	0.149	0.00823975	1.93329	1.47064	-0.000610352	5	0.149083	0.00823975	1.93634	1.48193	-0.000610352	5	0.149167	0.00854492	1.93482	1.492	-0.0012207	5	0.14925	0.00793457	1.93329	1.49902	-0.000305176	5	0.149333	0.00854492	1.93939	1.50543	-0.000915527	5	0.149417	0.00823975	1.93482	1.50879	0.000610352	5	0.1495	0.00793457	1.93329	1.51062	-0.000915527	5	0.149583	0.0088501	1.93787	1.51215	0.000610352	5	0.149667	0.00823975	1.93329	1.51367	0	5	0.14975	0.00823975	1.93024	1.51245	-0.000915527	5	0.149833	0.00854492	1.93634	1.51367	-0.000915527	5	0.149917	0.00823975	1.93329	1.51611	-0.000610352	5	0.15	0.00823975	1.93024	1.52466	-0.000305176	5	0.150083	0.00823975	1.93329	1.53992	-0.0012207	5	0.150167	0.00854492	1.92871	1.56342	-0.000610352	5	0.15025	0.00762939	1.92871	1.60217	-0.000610352	5	0.150333	0.00854492	1.93329	1.65253	-0.00152588	5	0.150417	0.0088501	1.93482	1.71844	-0.000305176	5	0.1505	0.00915527	1.93634	1.79352	0.000610352	5	0.150583	0.00946045	1.93024	1.87317	0	5	0.150667	0.00823975	1.93634	1.95404	-0.000915527	5	0.15075	0.00854492	1.93482	2.0285	0	5	0.150833	0.00854492	1.93329	2.09259	0	5	0.150917	0.00823975	1.93634	2.14508	-0.000915527	5	0.151	0.00854492	1.93329	2.18445	-0.0012207	5	0.151083	0.00823975	1.93176	2.21283	0	5	0.151167	0.0088501	1.93787	2.23022	-0.000915527	5	0.15125	0.00854492	1.93329	2.23755	0.000305176	5	0.151333	0.0088501	1.93329	2.23694	0	5	0.151417	0.0088501	1.93482	2.23358	-0.000915527	5	0.1515	0.00793457	1.93176	2.22656	-0.000915527	5	0.151583	0.00823975	1.93024	2.21924	-0.000305176	5	0.151667	0.00915527	1.93787	2.21222	-0.000610352	5	0.15175	0.00854492	1.93176	2.2052	0.000305176	5	0.151833	0.0088501	1.93634	2.19971	0	5	0.151917	0.00823975	1.93634	2.19452	-0.000305176	5	0.152	0.00854492	1.92871	2.18842	-0.000915527	5	0.152083	0.00823975	1.93176	2.18414	0	5	0.152167	0.00854492	1.93482	2.1817	-0.00152588	5	0.15225	0.00854492	1.93329	2.17712	-0.000610352	5	0.152333	0.0088501	1.92871	2.17499	0	5	0.152417	0.00854492	1.93329	2.17377	-0.0012207	5	0.1525	0.00854492	1.93329	2.17163	-0.0012207	5	0.152583	0.00915527	1.92871	2.16888	-0.00152588	5	0.152667	0.00823975	1.93482	2.16705	-0.000305176	5	0.15275	0.00793457	1.93329	2.164	-0.00152588	5	0.152833	0.00793457	1.93482	2.16187	-0.000305176	5	0.152917	0.00854492	1.93482	2.16003	-0.000915527	5	0.153	0.00793457	1.93482	2.15881	0	5	0.153083	0.00854492	1.93024	2.15729	-0.000305176	5	0.153167	0.00793457	1.92871	2.1582	0	5	0.15325	0.0088501	1.93634	2.15973	-0.00152588	5	0.153333	0.00793457	1.93176	2.16125	-0.000610352	5	0.153417	0.00762939	1.93176	2.1637	0.000305176	5	0.1535	0.00793457	1.93482	2.16675	-0.0012207	5	0.153583	0.00762939	1.93024	2.16888	-0.000610352	5	0.153667	0.00732422	1.93024	2.17285	-0.000915527	5	0.15375	0.00823975	1.93482	2.17712	-0.000915527	5	0.153833	0.00793457	1.93329	2.18018	-0.0012207	5	0.153917	0.00762939	1.93024	2.18506	-0.000305176	5	0.154	0.00823975	1.93024	2.19086	-0.000915527	5	0.154083	0.00793457	1.92719	2.19635	-0.000915527	5	0.154167	0.00823975	1.93176	2.20276	-0.000915527	5	0.15425	0.00854492	1.93176	2.20886	-0.000305176	5	0.154333	0.00762939	1.93024	2.21405	-0.0012207	5	0.154417	0.00823975	1.93482	2.21893	-0.000915527	5	0.1545	0.00762939	1.93329	2.22412	-0.000915527	5	0.154583	0.00823975	1.93634	2.23053	-0.000915527	5	0.154667	0.00823975	1.93024	2.24365	-0.0012207	5	0.15475	0.0088501	1.93482	2.26654	-0.000305176	5	0.154833	0.00915527	1.93024	2.29889	-0.000915527	5	0.154917	0.00854492	1.92871	2.34192	-0.0012207	5	0.155	0.0088501	1.93176	2.39136	-0.000305176	5	0.155083	0.00854492	1.93176	2.44263	-0.000610352	5	0.155167	0.00854492	1.93329	2.49359	-0.000915527	5	0.15525	0.0088501	1.93482	2.53967	-0.000305176	5	0.155333	0.00854492	1.93329	2.57874	-0.000915527	5	0.155417	0.00854492	1.93024	2.61139	0	5	0.1555	0.0088501	1.93329	2.63794	-0.00152588	5	0.155583	0.0088501	1.93024	2.65656	-0.000305176	5	0.155667	0.00823975	1.93787	2.66937	0.000610352	5	0.15575	0.00823975	1.92719	2.67761	-0.000610352	5	0.155833	0.0088501	1.93482	2.68219	0	5	0.155917	0.00823975	1.93329	2.68585	0.000305176	5	0.156	0.0088501	1.93634	2.68555	-0.000305176	5	0.156083	0.00854492	1.93329	2.68707	-0.000610352	5	0.156167	0.00854492	1.93176	2.68646	-0.00152588	5	0.15625	0.0088501	1.93024	2.68799	0	5	0.156333	0.00762939	1.93787	2.69043	-0.0012207	5	0.156417	0.00823975	1.93176	2.69287	0.000610352	5	0.1565	0.00823975	1.93329	2.69775	0	5	0.156583	0.00793457	1.93329	2.7063	0	5	0.156667	0.00854492	1.92871	2.71729	-0.000610352	5	0.15675	0.00823975	1.93329	2.73041	-0.00152588	5	0.156833	0.00823975	1.93024	2.74597	0	5	0.156917	0.00793457	1.93329	2.76215	-0.000915527	5	0.157	0.00823975	1.92871	2.78015	-0.000305176	5	0.157083	0.00823975	1.93329	2.79724	-0.00152588	5	0.157167	0.00823975	1.93329	2.81342	-0.000915527	5	0.15725	0.00854492	1.93176	2.82806	0	5	0.157333	0.00823975	1.92871	2.84393	0	5	0.157417	0.00823975	1.93787	2.86011	0.000305176	5	0.1575	0.00793457	1.93176	2.88239	-0.000610352	5	0.157583	0.00823975	1.92871	2.91016	-0.000610352	5	0.157667	0.00823975	1.93176	2.94678	-0.000610352	5	0.15775	0.00823975	1.92871	2.99072	-0.000915527	5	0.157833	0.00823975	1.93329	3.03864	0.000305176	5	0.157917	0.00854492	1.93634	3.08716	-0.000610352	5	0.158	0.00762939	1.93482	3.13293	0	5	0.158083	0.00823975	1.93024	3.17474	-0.000610352	5	0.158167	0.00854492	1.93482	3.21075	-0.000305176	5	0.15825	0.00854492	1.93024	3.24036	-0.000305176	5	0.158333	0.00762939	1.93787	3.26385	-0.00152588	5	0.158417	0.00762939	1.93329	3.28064	-0.000305176	5	0.1585	0.00823975	1.93176	3.29224	-0.000915527	5	0.158583	0.00854492	1.93024	3.30048	-0.0012207	5	0.158667	0.00823975	1.93176	3.30475	-0.000610352	5	0.15875	0.0088501	1.93482	3.30658	0	5	0.158833	0.00976562	1.93176	3.30658	0.000305176	5	0.158917	0.00793457	1.92719	3.30719	-0.000305176	5	0.159	0.00823975	1.93634	3.30658	0	5	0.159083	0.00823975	1.93329	3.3075	-0.000915527	5	0.159167	0.0088501	1.93482	3.3078	-0.000305176	5	0.15925	0.0088501	1.93482	3.30933	-0.000610352	5	0.159333	0.0100708	1.92719	3.31177	-0.000305176	5	0.159417	0.0088501	1.93024	3.31512	-0.00213623	5	0.1595	0.0088501	1.93482	3.31818	-0.000915527	5	0.159583	0.00823975	1.93176	3.32245	0	5	0.159667	0.0088501	1.93176	3.3255	-0.000915527	5	0.15975	0.00854492	1.93176	3.32977	-0.000610352	5	0.159833	0.00854492	1.92719	3.33191	-0.000610352	5	0.159917	0.00854492	1.93176	3.33496	-0.00183105	5	0.16	0.00823975	1.92871	3.33649	0	5	0.160083	0.0088501	1.93329	3.3374	-0.0012207	5	0.160167	0.0088501	1.93176	3.33832	-0.000915527	5	0.16025	0.00854492	1.93176	3.33832	-0.000610352	5	0.160333	0.0088501	1.93482	3.33832	0.000305176	5	0.160417	0.00823975	1.93329	3.33771	0.000305176	5	0.1605	0.00793457	1.92871	3.33832	-0.000610352	5	0.160583	0.0088501	1.93634	3.33832	-0.000610352	5	0.160667	0.00854492	1.93024	3.34015	-0.000915527	5	0.16075	0.00823975	1.92871	3.33984	0	5	0.160833	0.0088501	1.93176	3.34229	-0.000610352	5	0.160917	0.00823975	1.93024	3.34442	0.000305176	5	0.161	0.00762939	1.93024	3.34625	-0.000915527	5	0.161083	0.00823975	1.93787	3.35022	-0.000305176	5	0.161167	0.00793457	1.93176	3.35358	-0.000915527	5	0.16125	0.0088501	1.93329	3.35693	-0.000610352	5	0.161333	0.00915527	1.93634	3.35968	-0.0012207	5	0.161417	0.00854492	1.93176	3.36304	0	5	0.1615	0.00823975	1.92871	3.36578	-0.000305176	5	0.161583	0.00854492	1.93787	3.36914	0.000305176	5	0.161667	0.00854492	1.93176	3.3728	-0.000305176	5	0.16175	0.00854492	1.93176	3.37463	-0.000305176	5	0.161833	0.0088501	1.93482	3.37646	-0.000610352	5	0.161917	0.00793457	1.93024	3.37769	-0.00183105	5	0.162	0.00793457	1.93176	3.38043	-0.000915527	5	0.162083	0.00762939	1.93482	3.38226	-0.000915527	5	0.162167	0.00854492	1.93329	3.38318	0	5	0.16225	0.00854492	1.92719	3.38409	-0.000305176	5	0.162333	0.00823975	1.93024	3.38593	-0.000610352	5	0.162417	0.00854492	1.93024	3.38745	-0.00152588	5	0.1625	0.00854492	1.93024	3.38959	-0.000915527	5	0.162583	0.0088501	1.93634	3.39203	-0.000305176	5	0.162667	0.00854492	1.93329	3.39325	-0.0012207	5	0.16275	0.00823975	1.93329	3.39539	-0.000610352	5	0.162833	0.00823975	1.93176	3.39844	-0.000610352	5	0.162917	0.0088501	1.93176	3.40027	-0.000915527	5	0.163	0.00854492	1.93482	3.4024	0.000305176	5	0.163083	0.00854492	1.92719	3.40546	-0.000610352	5	0.163167	0.00976562	1.93634	3.40912	-0.000610352	5	0.16325	0.00854492	1.93024	3.4137	-0.000305176	5	0.163333	0.00854492	1.93176	3.41949	0	5	0.163417	0.0088501	1.93482	3.4256	-0.000610352	5	0.1635	0.00823975	1.92719	3.43201	-0.00152588	5	0.163583	0.0088501	1.93482	3.44116	0	5	0.163667	0.00823975	1.93787	3.45062	-0.00183105	5	0.16375	0.00793457	1.93024	3.46466	0.000610352	5	0.163833	0.00854492	1.93329	3.48755	-0.000305176	5	0.163917	0.0088501	1.93482	3.52417	-0.000305176	5	0.164	0.00762939	1.93024	3.57147	-0.000610352	5	0.164083	0.00823975	1.93024	3.63098	0	5	0.164167	0.00823975	1.93634	3.69751	-0.000915527	5	0.16425	0.00854492	1.93329	3.76617	0	5	0.164333	0.00915527	1.93329	3.83087	-0.000305176	5	0.164417	0.00823975	1.93482	3.89038	0	5	0.1645	0.00823975	1.93482	3.93982	0	5	0.164583	0.00915527	1.93024	3.97858	0	5	0.164667	0.00854492	1.93024	4.00391	-0.000610352	5	0.16475	0.00823975	1.93024	4.01886	-0.000305176	5	0.164833	0.00793457	1.93176	4.0213	-0.000610352	5	0.164917	0.0088501	1.93329	4.01642	-0.000915527	5	0.165	0.00823975	1.93024	4.00482	-0.0012207	5	0.165083	0.00823975	1.93482	3.99139	-0.0012207	5	0.165167	0.00793457	1.93176	3.97614	-0.000610352	5	0.16525	0.0088501	1.92566	3.96027	-0.0012207	5	0.165333	0.0088501	1.93482	3.94745	-0.000610352	5	0.165417	0.00915527	1.93024	3.93738	-0.000610352	5	0.1655	0.00793457	1.93329	3.93066	-0.000610352	5	0.165583	0.00762939	1.93176	3.92578	-0.00183105	5	0.165667	0.00854492	1.92871	3.92456	-0.000305176	5	0.16575	0.00793457	1.92871	3.92365	-0.0012207	5	0.165833	0.00823975	1.92871	3.92578	-0.000915527	5	0.165917	0.00823975	1.92871	3.92883	-0.000915527	5	0.166	0.00823975	1.93176	3.93097	-0.000915527	5	0.166083	0.00823975	1.93024	3.93463	-0.000610352	5	0.166167	0.00762939	1.92871	3.9386	-0.000610352	5	0.16625	0.00854492	1.93329	3.94073	-0.000610352	5	0.166333	0.0088501	1.93024	3.9447	-0.00152588	5	0.166417	0.00854492	1.93024	3.94653	-0.000305176	5	0.1665	0.0088501	1.93176	3.94806	-0.0012207	5	0.166583	0.00823975	1.92566	3.94836	-0.000915527	5	0.166667	0.00762939	1.93024	3.94958	0	5	0.16675	0.00762939	1.93482	3.94989	-0.00152588	5	0.166833	0.00854492	1.93176	3.94928	0.000305176	5	0.166917	0.00854492	1.92871	3.94928	-0.000915527	5	0.167	0.00823975	1.93176	3.94867	-0.000610352	5	0.167083	0.00854492	1.92719	3.94867	-0.000915527	5	0.167167	0.00823975	1.93176	3.9502	-0.0012207	5	0.16725	0.0088501	1.93329	3.95142	-0.0012207	5	0.167333	0.00854492	1.93024	3.95111	-0.000915527	5	0.167417	0.00823975	1.92871	3.95142	-0.000305176	5	0.1675	0.00823975	1.93176	3.95355	-0.000915527	5	0.167583	0.00854492	1.93482	3.95447	-0.000915527	5	0.167667	0.00854492	1.93024	3.95508	-0.00183105	5	0.16775	0.00854492	1.93329	3.95599	0	5	0.167833	0.00854492	1.92871	3.95569	-0.0012207	5	0.167917	0.00823975	1.93482	3.95721	0	5	0.168	0.00823975	1.93024	3.95782	-0.000610352	5	0.168083	0.00823975	1.93176	3.95782	-0.0012207	5	0.168167	0.00823975	1.93329	3.95905	-0.00183105	5	0.16825	0.00854492	1.92719	3.95996	-0.000915527	5	0.168333	0.0088501	1.93329	3.96118	-0.000610352	5	0.168417	0.00793457	1.93176	3.96301	-0.0012207	5	0.1685	0.0088501	1.93024	3.96576	-0.000305176	5	0.168583	0.0088501	1.93482	3.9682	-0.0012207	5	0.168667	0.00854492	1.93329	3.97034	0	5	0.16875	0.00823975	1.92871	3.97369	0	5	0.168833	0.0088501	1.93634	3.97705	-0.000915527	5	0.168917	0.00854492	1.93329	3.97949	0.000305176	5	0.169	0.0088501	1.92871	3.98102	-0.000610352	5	0.169083	0.00946045	1.93482	3.98346	-0.000305176	5	0.169167	0.0088501	1.92719	3.98315	-0.0012207	5	0.16925	0.0088501	1.93176	3.9856	-0.000915527	5	0.169333	0.0088501	1.93329	3.9859	-0.000915527	5	0.169417	0.00854492	1.92871	3.98468	-0.000610352	5	0.1695	0.00823975	1.93176	3.98224	-0.000305176	5	0.169583	0.00854492	1.93024	3.97949	0	5	0.169667	0.00854492	1.93176	3.97491	-0.000305176	5	0.16975	0.0088501	1.93329	3.97064	-0.000610352	5	0.169833	0.0088501	1.92871	3.96576	0	5	0.169917	0.00915527	1.93787	3.96149	-0.000915527	5	0.17	0.00854492	1.93176	3.95782	-0.0012207	5	0.170083	0.00854492	1.93176	3.95142	0	5	0.170167	0.00915527	1.93634	3.94562	0	5	0.17025	0.0088501	1.93329	3.93921	-0.000915527	5	0.170333	0.0088501	1.92719	3.93127	-0.0012207	5	0.170417	0.00854492	1.93329	3.92212	-0.000915527	5	0.1705	0.00854492	1.92719	3.91388	0.000305176	5	0.170583	0.00854492	1.93176	3.9032	-0.000610352	5	0.170667	0.00915527	1.93024	3.89404	-0.000610352	5	0.17075	0.00946045	1.93482	3.88367	0	5	0.170833	0.00854492	1.92871	3.8736	-0.000915527	5	0.170917	0.0088501	1.93939	3.86505	-0.000305176	5	0.171	0.00854492	1.93024	3.85651	-0.000610352	5	0.171083	0.00976562	1.93176	3.84949	0	5	0.171167	0.00854492	1.93176	3.84338	-0.000305176	5	0.17125	0.0088501	1.93634	3.8382	-0.000610352	5	0.171333	0.00823975	1.93024	3.83545	0.000305176	5	0.171417	0.0088501	1.93176	3.83484	-0.000610352	5	0.1715	0.00915527	1.93176	3.83453	-0.000915527	5	0.171583	0.00854492	1.93176	3.83484	-0.000915527	5	0.171667	0.00854492	1.93634	3.83698	-0.000610352	5	0.17175	0.00854492	1.93176	3.83942	-0.000915527	5	0.171833	0.00915527	1.93024	3.84308	-0.000915527	5	0.171917	0.00915527	1.93329	3.84521	-0.000915527	5	0.172	0.00854492	1.93024	3.84888	0.000305176	5	0.172083	0.0088501	1.93329	3.85193	-0.0012207	5	0.172167	0.0088501	1.93329	3.85498	0	5	0.17225	0.0088501	1.92871	3.85681	-0.0012207	5	0.172333	0.00823975	1.93024	3.85895	-0.000610352	5	0.172417	0.00946045	1.93176	3.86047	-0.000915527	5	0.1725	0.00854492	1.93176	3.86139	-0.000610352	5	0.172583	0.00854492	1.93176	3.86169	-0.000610352	5	0.172667	0.0088501	1.92871	3.86169	-0.0012207	5	0.17275	0.0088501	1.92871	3.86078	-0.000610352	5	0.172833	0.00915527	1.93176	3.85956	-0.000915527	5	0.172917	0.00854492	1.93329	3.85651	0.0012207	5	0.173	0.00915527	1.93024	3.8501	-0.000610352	5	0.173083	0.0088501	1.93176	3.84277	0	5	0.173167	0.00823975	1.93176	3.83057	-0.000610352	5	0.17325	0.0088501	1.93329	3.81744	-0.000915527	5	0.173333	0.00854492	1.92719	3.80035	0.000305176	5	0.173417	0.00854492	1.92871	3.78448	-0.000915527	5	0.1735	0.00946045	1.93787	3.76862	0	5	0.173583	0.00854492	1.93176	3.75366	-0.000305176	5	0.173667	0.00854492	1.93176	3.74268	0	5	0.17375	0.00854492	1.93482	3.73108	-0.000305176	5	0.173833	0.00854492	1.93176	3.72101	-0.000305176	5	0.173917	0.00854492	1.92871	3.71368	0	5	0.174	0.00946045	1.93482	3.70605	-0.000610352	5	0.174083	0.0088501	1.93024	3.69934	-0.000915527	5	0.174167	0.00854492	1.93329	3.6853	-0.000305176	5	0.17425	0.00946045	1.93176	3.66394	-0.0012207	5	0.174333	0.00793457	1.93329	3.63098	0.000305176	5	0.174417	0.00793457	1.93024	3.59192	-0.0012207	5	0.1745	0.0088501	1.93176	3.54645	-0.000610352	5	0.174583	0.00823975	1.93482	3.50128	-0.000610352	5	0.174667	0.0088501	1.93329	3.45459	0	5	0.17475	0.0088501	1.93634	3.41125	-0.000610352	5	0.174833	0.00823975	1.93634	3.37311	0	5	0.174917	0.00823975	1.92871	3.34015	-0.00152588	5	0.175	0.0088501	1.93787	3.31451	-0.000915527	5	0.175083	0.00793457	1.93024	3.29498	-0.0012207	5	0.175167	0.00823975	1.93176	3.28003	-0.000610352	5	0.17525	0.0088501	1.93482	3.27057	-0.000915527	5	0.175333	0.00854492	1.93176	3.26416	-0.0012207	5	0.175417	0.00823975	1.93176	3.26111	-0.000305176	5	0.1755	0.00823975	1.93024	3.25836	-0.000610352	5	0.175583	0.00854492	1.92871	3.25531	-0.000915527	5	0.175667	0.0088501	1.92871	3.25317	-0.000305176	5	0.17575	0.00854492	1.93329	3.24982	-0.00152588	5	0.175833	0.00823975	1.92871	3.24493	-0.000915527	5	0.175917	0.00823975	1.93329	3.23853	-0.000915527	5	0.176	0.00854492	1.93024	3.23029	0.000915527	5	0.176083	0.00854492	1.92719	3.2196	-0.00152588	5	0.176167	0.00823975	1.93024	3.20831	-0.000610352	5	0.17625	0.00823975	1.93329	3.19366	-0.000915527	5	0.176333	0.00854492	1.93024	3.1778	-0.000610352	5	0.176417	0.00823975	1.93482	3.16162	0	5	0.1765	0.00823975	1.93024	3.14301	-0.000305176	5	0.176583	0.0088501	1.93634	3.12408	-0.000610352	5	0.176667	0.00823975	1.93024	3.10486	-0.000610352	5	0.17675	0.00854492	1.93024	3.08472	0	5	0.176833	0.00823975	1.93634	3.0658	-0.000915527	5	0.176917	0.00823975	1.93024	3.04688	-0.000915527	5	0.177	0.00823975	1.93176	3.02979	0	5	0.177083	0.00823975	1.93482	3.01514	-0.000915527	5	0.177167	0.00854492	1.93024	3.00232	0	5	0.17725	0.00854492	1.93329	2.99194	-0.000610352	5	0.177333	0.00854492	1.92719	2.98462	-0.000305176	5	0.177417	0.00793457	1.93329	2.97821	-0.0012207	5	0.1775	0.00854492	1.93482	2.9718	-0.00152588	5	0.177583	0.00854492	1.92871	2.96295	-0.000610352	5	0.177667	0.00823975	1.92871	2.95135	-0.000915527	5	0.17775	0.00854492	1.93329	2.93671	-0.000915527	5	0.177833	0.00823975	1.93329	2.92084	0	5	0.177917	0.00854492	1.93329	2.90405	-0.000305176	5	0.178	0.00915527	1.93329	2.88849	-0.000610352	5	0.178083	0.0088501	1.93329	2.87415	0	5	0.178167	0.00823975	1.93176	2.86346	-0.000610352	5	0.17825	0.0088501	1.93329	2.85645	-0.000610352	5	0.178333	0.0088501	1.93329	2.85278	-0.0012207	5	0.178417	0.00823975	1.93329	2.85187	-0.000610352	5	0.1785	0.00854492	1.93482	2.854	0.000610352	5	0.178583	0.00762939	1.92871	2.85797	-0.000305176	5	0.178667	0.00915527	1.93787	2.86316	-0.000915527	5	0.17875	0.00762939	1.93024	2.86835	-0.000610352	5	0.178833	0.00854492	1.93482	2.87018	-0.000305176	5	0.178917	0.00915527	1.93329	2.87292	-0.000610352	5	0.179	0.00793457	1.93024	2.87201	-0.000610352	5	0.179083	0.00823975	1.93329	2.8714	-0.000915527	5	0.179167	0.00854492	1.93787	2.86896	-0.000915527	5	0.17925	0.00793457	1.93176	2.86743	0	5	0.179333	0.00793457	1.93329	2.86407	-0.000610352	5	0.179417	0.00854492	1.92871	2.86194	-0.000610352	5	0.1795	0.00793457	1.93024	2.85706	-0.000915527	5	0.179583	0.00854492	1.93329	2.85248	-0.000610352	5	0.179667	0.00854492	1.93482	2.84729	-0.000610352	5	0.17975	0.00793457	1.93329	2.83997	-0.000915527	5	0.179833	0.00793457	1.93024	2.83173	-0.000915527	5	0.179917	0.00823975	1.93329	2.82288	0	5	0.18	0.00854492	1.93329	2.81189	-0.000305176	5	0.180083	0.0088501	1.93329	2.79968	-0.000915527	5	0.180167	0.00793457	1.93024	2.78534	-0.000610352	5	0.18025	0.00854492	1.93024	2.76642	-0.000915527	5	0.180333	0.00823975	1.92871	2.74658	-0.0012207	5	0.180417	0.00793457	1.93482	2.72247	0	5	0.1805	0.00793457	1.93482	2.69653	-0.00152588	5	0.180583	0.00823975	1.93176	2.66846	-0.000915527	5	0.180667	0.00854492	1.92871	2.64038	-0.0012207	5	0.18075	0.0088501	1.93634	2.61322	-0.000915527	5	0.180833	0.00854492	1.93024	2.58728	0.000610352	5	0.180917	0.00823975	1.92871	2.56256	-0.000305176	5	0.181	0.00823975	1.93176	2.5415	-0.000305176	5	0.181083	0.0088501	1.92719	2.52075	-0.000915527	5	0.181167	0.0088501	1.93024	2.50336	-0.000610352	5	0.18125	0.0088501	1.93482	2.48657	-0.000915527	5	0.181333	0.00793457	1.93024	2.4704	0.000305176	5	0.181417	0.00823975	1.93482	2.45697	-0.000915527	5	0.1815	0.00854492	1.93634	2.44537	-0.000305176	5	0.181583	0.00823975	1.92719	2.43439	0	5	0.181667	0.00854492	1.93024	2.42737	-0.000915527	5	0.18175	0.00823975	1.93482	2.42065	-0.000610352	5	0.181833	0.00823975	1.93482	2.41638	0	5	0.181917	0.00793457	1.93329	2.41302	-0.0012207	5	0.182	0.0088501	1.93329	2.41089	-0.000915527	5	0.182083	0.00854492	1.93329	2.40997	-0.000305176	5	0.182167	0.00823975	1.93634	2.40875	-0.0012207	5	0.18225	0.00823975	1.93176	2.40814	-0.000610352	5	0.182333	0.00823975	1.93482	2.40662	-0.000305176	5	0.182417	0.0088501	1.92871	2.40692	0	5	0.1825	0.00854492	1.93634	2.40753	-0.000610352	5	0.182583	0.0088501	1.93329	2.40875	-0.000610352	5	0.182667	0.0088501	1.93329	2.41058	0	5	0.18275	0.00854492	1.92871	2.41119	-0.000305176	5	0.182833	0.00823975	1.93329	2.41241	-0.000305176	5	0.182917	0.00854492	1.92871	2.40906	-0.000305176	5	0.183	0.00823975	1.93024	2.40234	-0.000610352	5	0.183083	0.00823975	1.93787	2.38983	-0.000610352	5	0.183167	0.00854492	1.93329	2.37244	0.000305176	5	0.18325	0.00793457	1.93024	2.35077	-0.000610352	5	0.183333	0.00823975	1.93787	2.32574	-0.000305176	5	0.183417	0.00854492	1.93024	2.29919	0	5	0.1835	0.00823975	1.93482	2.26868	-0.00152588	5	0.183583	0.00854492	1.93482	2.2403	-0.000305176	5	0.183667	0.00823975	1.93329	2.21344	-0.000915527	5	0.18375	0.00854492	1.93024	2.19055	-0.000610352	5	0.183833	0.00762939	1.93329	2.17102	-0.000610352	5	0.183917	0.00793457	1.93329	2.15546	-0.0012207	5	0.184	0.00854492	1.93176	2.14478	-0.000305176	5	0.184083	0.0088501	1.93329	2.13867	-0.00152588	5	0.184167	0.00854492	1.93482	2.13593	-0.000915527	5	0.18425	0.00793457	1.93634	2.13776	-0.000610352	5	0.184333	0.00854492	1.92871	2.14081	-0.000915527	5	0.184417	0.00823975	1.93482	2.14447	-0.000610352	5	0.1845	0.00823975	1.93024	2.15027	-0.000915527	5	0.184583	0.00854492	1.93329	2.15393	-0.0012207	5	0.184667	0.0088501	1.93482	2.15729	-0.000915527	5	0.18475	0.00854492	1.93024	2.15912	-0.0012207	5	0.184833	0.00854492	1.93482	2.15942	0	5	0.184917	0.00854492	1.93329	2.15668	-0.00152588	5	0.185	0.00823975	1.93329	2.15393	-0.000610352	5	0.185083	0.00823975	1.93329	2.14935	-0.000610352	5	0.185167	0.00854492	1.93329	2.14264	-0.000915527	5	0.18525	0.00915527	1.93329	2.13562	-0.000610352	5	0.185333	0.00854492	1.93024	2.12982	0	5	0.185417	0.00823975	1.93787	2.12189	-0.000305176	5	0.1855	0.0088501	1.93482	2.11578	-0.00152588	5	0.185583	0.00823975	1.92871	2.10968	-0.000610352	5	0.185667	0.00793457	1.93329	2.10175	-0.000610352	5	0.18575	0.00823975	1.93329	2.09076	-0.000915527	5	0.185833	0.00762939	1.92871	2.07367	-0.000915527	5	0.185917	0.00823975	1.93787	2.03033	0	5	0.186	0.00823975	1.93329	1.93176	0.000610352	5	0.186083	0.00854492	1.93329	1.76361	-0.000305176	5	0.186167	0.00823975	1.93634	1.53839	-0.00152588	5	0.18625	0.00793457	1.93024	1.2738	-0.000305176	5	0.186333	0.00762939	1.92871	1.00159	-0.000610352	5	0.186417	0.00823975	1.93482	0.742493	-0.000610352	5	0.1865	0.00823975	1.92871	0.514526	0.000610352	5	0.186583	0.00823975	1.93024	0.331116	-0.0012207	5	0.186667	0.00793457	1.93176	0.196228	-0.000610352	5	0.18675	0.00793457	1.93329	0.106812	-0.000915527	5	0.186833	0.00793457	1.93329	0.0613403	-0.00152588	5	0.186917	0.00823975	1.93482	0.0494385	0	5	0.187	0.00762939	1.93329	0.0637817	-0.0012207	5	0.187083	0.00732422	1.93176	0.0967407	-0.0012207	5	0.187167	0.00793457	1.93329	0.140686	-0.000610352	5	0.18725	0.00762939	1.93482	0.187073	-0.000610352	5	0.187333	0.00823975	1.93482	0.233459	0	5	0.187417	0.00793457	1.92719	0.273438	-0.000305176	5	0.1875	0.0088501	1.93634	0.306396	0.000610352	5	0.187583	0.00823975	1.93024	0.330505	-0.0012207	5	0.187667	0.00823975	1.93634	0.345764	-0.000915527	5	0.18775	0.00793457	1.93329	0.353699	-0.00183105	5	0.187833	0.00854492	1.93482	0.354614	0	5	0.187917	0.00793457	1.93024	0.350647	-0.0012207	5	0.188	0.00854492	1.93787	0.345154	-0.000915527	5	0.188083	0.00762939	1.93024	0.338135	-0.000610352	5	0.188167	0.00793457	1.93176	0.332336	0	5	0.18825	0.00793457	1.93482	0.326538	-0.000915527	5	0.188333	0.00823975	1.93482	0.323486	0	5	0.188417	0.00823975	1.93329	0.321045	-0.000305176	5	0.1885	0.00762939	1.93787	0.317383	-0.000915527	5	0.188583	0.00854492	1.93176	0.309753	0	5	0.188667	0.00823975	1.93634	0.294495	0.000305176	5	0.18875	0.00823975	1.93634	0.272217	-0.000610352	5	0.188833	0.00793457	1.93329	0.244446	-0.000915527	5	0.188917	0.00793457	1.93329	0.21637	-0.000610352	5	0.189	0.00854492	1.93787	0.191956	-0.000610352	5	0.189083	0.00762939	1.93176	0.172729	0	5	0.189167	0.00854492	1.93482	0.160217	-0.0012207	5	0.18925	0.00823975	1.93482	0.157166	-0.000305176	5	0.189333	0.00823975	1.92719	0.158691	-0.0012207	5	0.189417	0.00793457	1.93176	0.166626	-0.000610352	5	0.1895	0.00823975	1.93482	0.178223	-0.000610352	5	0.189583	0.00732422	1.93482	0.191956	-0.00152588	5	0.189667	0.00793457	1.93482	0.205994	-0.000915527	5	0.18975	0.00793457	1.93482	0.220947	-0.000915527	5	0.189833	0.00823975	1.93329	0.233154	-0.000305176	5	0.189917	0.00823975	1.93329	0.244446	-0.00152588	5	0.19	0.00823975	1.92871	0.252686	0.000305176	5	0.190083	0.00793457	1.93329	0.258789	-0.0012207	5	0.190167	0.00732422	1.93329	0.263062	-0.000610352	5	0.19025	0.00823975	1.93176	0.264893	-0.000915527	5	0.190333	0.00823975	1.93482	0.263977	-0.000305176	5	0.190417	0.00854492	1.93329	0.26123	-0.000915527	5	0.1905	0.00732422	1.93329	0.259705	-0.000915527	5	0.190583	0.00762939	1.93329	0.255432	-0.000610352	5	0.190667	0.00793457	1.93176	0.254211	-0.000915527	5	0.19075	0.00793457	1.93482	0.25116	-0.000305176	5	0.190833	0.00793457	1.93634	0.249634	-0.000610352	5	0.190917	0.00793457	1.93176	0.249023	0	5	0.191	0.00793457	1.92719	0.246887	0	5	0.191083	0.00915527	1.93634	0.247498	-0.000915527	5	0.191167	0.00823975	1.92871	0.247803	0	5	0.19125	0.00854492	1.93482	0.246887	0	5	0.191333	0.00823975	1.93482	0.247803	-0.000305176	5	0.191417	0.00762939	1.93176	0.246277	-0.000915527	5	0.1915	0.00793457	1.93329	0.246277	-0.000305176	5	0.191583	0.00793457	1.93939	0.245361	-0.000915527	5	0.191667	0.00823975	1.93176	0.245056	0.000610352	5	0.19175	0.00854492	1.93329	0.241699	-0.0012207	5	0.191833	0.00823975	1.92871	0.240173	0	5	0.191917	0.00793457	1.93024	0.235901	-0.000915527	5	0.192	0.0088501	1.93329	0.231628	-0.000610352	5	0.192083	0.00854492	1.93634	0.226135	-0.000305176	5	0.192167	0.00854492	1.93329	0.213318	-0.000610352	5	0.19225	0.00823975	1.93024	0.159607	-0.000610352	5	0.192333	0.00793457	1.93176	0.0109863	-0.000915527	5	0.192417	0.00762939	1.93329	-0.253601	-0.000305176	5	0.1925	0.00854492	1.93329	-0.625	-0.000610352	5	0.192583	0.00701904	1.92871	-1.0672	-0.000305176	5	0.192667	0.00793457	1.93024	-1.54053	0	5	0.19275	0.00823975	1.92719	-2.00043	-0.0012207	5	0.192833	0.00823975	1.93176	-2.41425	0	5	0.192917	0.00854492	1.93634	-2.75543	-0.000305176	5	0.193	0.00793457	1.93176	-3.0069	-0.000305176	5	0.193083	0.00701904	1.93176	-3.15002	-0.000305176	5	0.193167	0.00823975	1.93482	-3.17963	-0.000610352	5	0.19325	0.00762939	1.93482	-3.10333	-0.000915527	5	0.193333	0.00762939	1.93329	-2.94006	-0.000915527	5	0.193417	0.00823975	1.93482	-2.71942	-0.000305176	5	0.1935	0.00762939	1.93787	-2.46429	0	5	0.193583	0.00762939	1.93787	-2.19727	-0.00152588	5	0.193667	0.00793457	1.93482	-1.93573	-0.000305176	5	0.19375	0.00823975	1.93482	-1.698	-0.00152588	5	0.193833	0.00793457	1.93634	-1.48895	-0.000915527	5	0.193917	0.00823975	1.93329	-1.31744	-0.000915527	5	0.194	0.00793457	1.93787	-1.18317	-0.000610352	5	0.194083	0.00823975	1.93482	-1.08307	-0.000915527	5	0.194167	0.00793457	1.93024	-1.01349	0	5	0.19425	0.00732422	1.93787	-0.967407	-0.000610352	5	0.194333	0.00793457	1.93024	-0.937805	-0.000915527	5	0.194417	0.00762939	1.93634	-0.921326	-0.0012207	5	0.1945	0.00793457	1.93482	-0.913086	-0.0012207	5	0.194583	0.00793457	1.93482	-0.909729	0	5	0.194667	0.00762939	1.93329	-0.909119	-0.000610352	5	0.19475	0.00762939	1.93176	-0.908813	0.000305176	5	0.194833	0.00762939	1.93024	-0.908203	0	5	0.194917	0.00732422	1.93329	-0.906067	-0.000610352	5	0.195	0.00823975	1.93634	-0.903931	-0.000915527	5	0.195083	0.00793457	1.93176	-0.899963	-0.000610352	5	0.195167	0.00732422	1.93634	-0.896606	-0.000915527	5	0.19525	0.00823975	1.93787	-0.890808	-0.000915527	5	0.195333	0.00793457	1.93787	-0.884705	0	5	0.195417	0.00823975	1.93482	-0.880432	-0.000915527	5	0.1955	0.00823975	1.93482	-0.874634	-0.00152588	5	0.195583	0.00823975	1.92719	-0.871277	-0.000915527	5	0.195667	0.00732422	1.93482	-0.867004	0	5	0.19575	0.00762939	1.93787	-0.863342	-0.000915527	5	0.195833	0.00762939	1.93329	-0.861206	0.000305176	5	0.195917	0.00823975	1.93329	-0.858459	0	5	0.196	0.00762939	1.93329	-0.856934	-0.000915527	5	0.196083	0.00854492	1.93329	-0.857544	0	5	0.196167	0.00793457	1.93329	-0.856628	-0.00183105	5	0.19625	0.00823975	1.93329	-0.857544	-0.000610352	5	0.196333	0.00793457	1.93176	-0.860901	-0.000915527	5	0.196417	0.00823975	1.93329	-0.863647	-0.000915527	5	0.1965	0.00793457	1.93329	-0.868835	0	5	0.196583	0.00823975	1.93634	-0.87738	-0.000305176	5	0.196667	0.00793457	1.93329	-0.89447	0	5	0.19675	0.00732422	1.93329	-0.926514	0	5	0.196833	0.00823975	1.93939	-0.979004	-0.000305176	5	0.196917	0.00732422	1.93329	-1.05316	-0.000305176	5	0.197	0.00823975	1.93634	-1.15692	0	5	0.197083	0.00762939	1.93787	-1.30402	0	5	0.197167	0.00854492	1.93024	-1.50604	-0.000915527	5	0.19725	0.00793457	1.93176	-1.75842	-0.000610352	5	0.197333	0.00793457	1.93482	-2.052	-0.0012207	5	0.197417	0.00732422	1.93176	-2.36786	0	5	0.1975	0.00793457	1.93482	-2.68433	-0.000610352	5	0.197583	0.00762939	1.93176	-2.98065	-0.000610352	5	0.197667	0.00793457	1.93176	-3.24097	0	5	0.19775	0.00823975	1.93329	-3.45306	-0.00183105	5	0.197833	0.00762939	1.93329	-3.61328	0	5	0.197917	0.00793457	1.93634	-3.72009	-0.0012207	5	0.198	0.00793457	1.93176	-3.77808	-0.000610352	5	0.198083	0.00762939	1.93787	-3.79669	-0.00183105	5	0.198167	0.00793457	1.93787	-3.7851	-0.000610352	5	0.19825	0.00762939	1.93634	-3.75153	0.000305176	5	0.198333	0.00793457	1.93482	-3.70605	-0.000610352	5	0.198417	0.00793457	1.93787	-3.65387	-0.000305176	5	0.1985	0.00732422	1.93634	-3.60077	0.000305176	5	0.198583	0.00793457	1.93634	-3.54919	-0.000610352	5	0.198667	0.00793457	1.93329	-3.50311	0.000305176	5	0.19875	